# Pulseq sequence file
# Created by PyPulseq

[VERSION]
major 1
minor 4
revision 0

[DEFINITIONS]
AdcRasterTime 1e-07 
BlockDurationRaster 1e-05 
GradientRasterTime 1e-05 
RadiofrequencyRasterTime 1e-06 

# Format of blocks:
# NUM DUR RF  GX  GY  GZ  ADC  EXT
[BLOCKS]
  1 1883   1   0   0   1  0  0
  2   1   0   0   0   0  0  0
  3  46   0   2   3   4  0  0
  4  82   0   5   6   0  1  0
  5  82   0   7   8   0  1  0
  6  82   0   5   8   0  1  0
  7  82   0   7   8   0  1  0
  8  82   0   5   8   0  1  0
  9  82   0   7   8   0  1  0
 10  82   0   5   8   0  1  0
 11  82   0   7   8   0  1  0
 12  82   0   5   8   0  1  0
 13  82   0   7   8   0  1  0
 14  82   0   5   8   0  1  0
 15  82   0   7   8   0  1  0
 16  82   0   5   8   0  1  0
 17  82   0   7   8   0  1  0
 18  82   0   5   8   0  1  0
 19  82   0   7   8   0  1  0
 20  82   0   5   8   0  1  0
 21  82   0   7   8   0  1  0
 22  82   0   5   8   0  1  0
 23  82   0   7   8   0  1  0
 24  82   0   5   8   0  1  0
 25  82   0   7   8   0  1  0
 26  82   0   5   8   0  1  0
 27  82   0   7   9   0  1  0
 28 1883   1   0   0   1  0  0
 29   1   0   0   0   0  0  0
 30  46   0   2   3  10  0  0
 31  82   0   5   6   0  1  0
 32  82   0   7   8   0  1  0
 33  82   0   5   8   0  1  0
 34  82   0   7   8   0  1  0
 35  82   0   5   8   0  1  0
 36  82   0   7   8   0  1  0
 37  82   0   5   8   0  1  0
 38  82   0   7   8   0  1  0
 39  82   0   5   8   0  1  0
 40  82   0   7   8   0  1  0
 41  82   0   5   8   0  1  0
 42  82   0   7   8   0  1  0
 43  82   0   5   8   0  1  0
 44  82   0   7   8   0  1  0
 45  82   0   5   8   0  1  0
 46  82   0   7   8   0  1  0
 47  82   0   5   8   0  1  0
 48  82   0   7   8   0  1  0
 49  82   0   5   8   0  1  0
 50  82   0   7   8   0  1  0
 51  82   0   5   8   0  1  0
 52  82   0   7   8   0  1  0
 53  82   0   5   8   0  1  0
 54  82   0   7   9   0  1  0
 55 1883   1   0   0   1  0  0
 56   1   0   0   0   0  0  0
 57  46   0   2   3  11  0  0
 58  82   0   5   6   0  1  0
 59  82   0   7   8   0  1  0
 60  82   0   5   8   0  1  0
 61  82   0   7   8   0  1  0
 62  82   0   5   8   0  1  0
 63  82   0   7   8   0  1  0
 64  82   0   5   8   0  1  0
 65  82   0   7   8   0  1  0
 66  82   0   5   8   0  1  0
 67  82   0   7   8   0  1  0
 68  82   0   5   8   0  1  0
 69  82   0   7   8   0  1  0
 70  82   0   5   8   0  1  0
 71  82   0   7   8   0  1  0
 72  82   0   5   8   0  1  0
 73  82   0   7   8   0  1  0
 74  82   0   5   8   0  1  0
 75  82   0   7   8   0  1  0
 76  82   0   5   8   0  1  0
 77  82   0   7   8   0  1  0
 78  82   0   5   8   0  1  0
 79  82   0   7   8   0  1  0
 80  82   0   5   8   0  1  0
 81  82   0   7   9   0  1  0
 82 1883   1   0   0   1  0  0
 83   1   0   0   0   0  0  0
 84  46   0   2   3  12  0  0
 85  82   0   5   6   0  1  0
 86  82   0   7   8   0  1  0
 87  82   0   5   8   0  1  0
 88  82   0   7   8   0  1  0
 89  82   0   5   8   0  1  0
 90  82   0   7   8   0  1  0
 91  82   0   5   8   0  1  0
 92  82   0   7   8   0  1  0
 93  82   0   5   8   0  1  0
 94  82   0   7   8   0  1  0
 95  82   0   5   8   0  1  0
 96  82   0   7   8   0  1  0
 97  82   0   5   8   0  1  0
 98  82   0   7   8   0  1  0
 99  82   0   5   8   0  1  0
100  82   0   7   8   0  1  0
101  82   0   5   8   0  1  0
102  82   0   7   8   0  1  0
103  82   0   5   8   0  1  0
104  82   0   7   8   0  1  0
105  82   0   5   8   0  1  0
106  82   0   7   8   0  1  0
107  82   0   5   8   0  1  0
108  82   0   7   9   0  1  0
109 1883   1   0   0   1  0  0
110   1   0   0   0   0  0  0
111  46   0   2   3  13  0  0
112  82   0   5   6   0  1  0
113  82   0   7   8   0  1  0
114  82   0   5   8   0  1  0
115  82   0   7   8   0  1  0
116  82   0   5   8   0  1  0
117  82   0   7   8   0  1  0
118  82   0   5   8   0  1  0
119  82   0   7   8   0  1  0
120  82   0   5   8   0  1  0
121  82   0   7   8   0  1  0
122  82   0   5   8   0  1  0
123  82   0   7   8   0  1  0
124  82   0   5   8   0  1  0
125  82   0   7   8   0  1  0
126  82   0   5   8   0  1  0
127  82   0   7   8   0  1  0
128  82   0   5   8   0  1  0
129  82   0   7   8   0  1  0
130  82   0   5   8   0  1  0
131  82   0   7   8   0  1  0
132  82   0   5   8   0  1  0
133  82   0   7   8   0  1  0
134  82   0   5   8   0  1  0
135  82   0   7   9   0  1  0
136 1883   1   0   0   1  0  0
137   1   0   0   0   0  0  0
138  46   0   2   3  14  0  0
139  82   0   5   6   0  1  0
140  82   0   7   8   0  1  0
141  82   0   5   8   0  1  0
142  82   0   7   8   0  1  0
143  82   0   5   8   0  1  0
144  82   0   7   8   0  1  0
145  82   0   5   8   0  1  0
146  82   0   7   8   0  1  0
147  82   0   5   8   0  1  0
148  82   0   7   8   0  1  0
149  82   0   5   8   0  1  0
150  82   0   7   8   0  1  0
151  82   0   5   8   0  1  0
152  82   0   7   8   0  1  0
153  82   0   5   8   0  1  0
154  82   0   7   8   0  1  0
155  82   0   5   8   0  1  0
156  82   0   7   8   0  1  0
157  82   0   5   8   0  1  0
158  82   0   7   8   0  1  0
159  82   0   5   8   0  1  0
160  82   0   7   8   0  1  0
161  82   0   5   8   0  1  0
162  82   0   7   9   0  1  0
163 1883   1   0   0   1  0  0
164   1   0   0   0   0  0  0
165  46   0   2   3  15  0  0
166  82   0   5   6   0  1  0
167  82   0   7   8   0  1  0
168  82   0   5   8   0  1  0
169  82   0   7   8   0  1  0
170  82   0   5   8   0  1  0
171  82   0   7   8   0  1  0
172  82   0   5   8   0  1  0
173  82   0   7   8   0  1  0
174  82   0   5   8   0  1  0
175  82   0   7   8   0  1  0
176  82   0   5   8   0  1  0
177  82   0   7   8   0  1  0
178  82   0   5   8   0  1  0
179  82   0   7   8   0  1  0
180  82   0   5   8   0  1  0
181  82   0   7   8   0  1  0
182  82   0   5   8   0  1  0
183  82   0   7   8   0  1  0
184  82   0   5   8   0  1  0
185  82   0   7   8   0  1  0
186  82   0   5   8   0  1  0
187  82   0   7   8   0  1  0
188  82   0   5   8   0  1  0
189  82   0   7   9   0  1  0
190 1883   1   0   0   1  0  0
191   1   0   0   0   0  0  0
192  46   0   2   3  16  0  0
193  82   0   5   6   0  1  0
194  82   0   7   8   0  1  0
195  82   0   5   8   0  1  0
196  82   0   7   8   0  1  0
197  82   0   5   8   0  1  0
198  82   0   7   8   0  1  0
199  82   0   5   8   0  1  0
200  82   0   7   8   0  1  0
201  82   0   5   8   0  1  0
202  82   0   7   8   0  1  0
203  82   0   5   8   0  1  0
204  82   0   7   8   0  1  0
205  82   0   5   8   0  1  0
206  82   0   7   8   0  1  0
207  82   0   5   8   0  1  0
208  82   0   7   8   0  1  0
209  82   0   5   8   0  1  0
210  82   0   7   8   0  1  0
211  82   0   5   8   0  1  0
212  82   0   7   8   0  1  0
213  82   0   5   8   0  1  0
214  82   0   7   8   0  1  0
215  82   0   5   8   0  1  0
216  82   0   7   9   0  1  0
217 1883   1   0   0   1  0  0
218   1   0   0   0   0  0  0
219  46   0   2   3  17  0  0
220  82   0   5   6   0  1  0
221  82   0   7   8   0  1  0
222  82   0   5   8   0  1  0
223  82   0   7   8   0  1  0
224  82   0   5   8   0  1  0
225  82   0   7   8   0  1  0
226  82   0   5   8   0  1  0
227  82   0   7   8   0  1  0
228  82   0   5   8   0  1  0
229  82   0   7   8   0  1  0
230  82   0   5   8   0  1  0
231  82   0   7   8   0  1  0
232  82   0   5   8   0  1  0
233  82   0   7   8   0  1  0
234  82   0   5   8   0  1  0
235  82   0   7   8   0  1  0
236  82   0   5   8   0  1  0
237  82   0   7   8   0  1  0
238  82   0   5   8   0  1  0
239  82   0   7   8   0  1  0
240  82   0   5   8   0  1  0
241  82   0   7   8   0  1  0
242  82   0   5   8   0  1  0
243  82   0   7   9   0  1  0
244 1883   1   0   0   1  0  0
245   1   0   0   0   0  0  0
246  46   0   2   3  18  0  0
247  82   0   5   6   0  1  0
248  82   0   7   8   0  1  0
249  82   0   5   8   0  1  0
250  82   0   7   8   0  1  0
251  82   0   5   8   0  1  0
252  82   0   7   8   0  1  0
253  82   0   5   8   0  1  0
254  82   0   7   8   0  1  0
255  82   0   5   8   0  1  0
256  82   0   7   8   0  1  0
257  82   0   5   8   0  1  0
258  82   0   7   8   0  1  0
259  82   0   5   8   0  1  0
260  82   0   7   8   0  1  0
261  82   0   5   8   0  1  0
262  82   0   7   8   0  1  0
263  82   0   5   8   0  1  0
264  82   0   7   8   0  1  0
265  82   0   5   8   0  1  0
266  82   0   7   8   0  1  0
267  82   0   5   8   0  1  0
268  82   0   7   8   0  1  0
269  82   0   5   8   0  1  0
270  82   0   7   9   0  1  0
271 1883   1   0   0   1  0  0
272   1   0   0   0   0  0  0
273  46   0   2   3  19  0  0
274  82   0   5   6   0  1  0
275  82   0   7   8   0  1  0
276  82   0   5   8   0  1  0
277  82   0   7   8   0  1  0
278  82   0   5   8   0  1  0
279  82   0   7   8   0  1  0
280  82   0   5   8   0  1  0
281  82   0   7   8   0  1  0
282  82   0   5   8   0  1  0
283  82   0   7   8   0  1  0
284  82   0   5   8   0  1  0
285  82   0   7   8   0  1  0
286  82   0   5   8   0  1  0
287  82   0   7   8   0  1  0
288  82   0   5   8   0  1  0
289  82   0   7   8   0  1  0
290  82   0   5   8   0  1  0
291  82   0   7   8   0  1  0
292  82   0   5   8   0  1  0
293  82   0   7   8   0  1  0
294  82   0   5   8   0  1  0
295  82   0   7   8   0  1  0
296  82   0   5   8   0  1  0
297  82   0   7   9   0  1  0
298 1883   1   0   0   1  0  0
299   1   0   0   0   0  0  0
300  46   0   2   3  20  0  0
301  82   0   5   6   0  1  0
302  82   0   7   8   0  1  0
303  82   0   5   8   0  1  0
304  82   0   7   8   0  1  0
305  82   0   5   8   0  1  0
306  82   0   7   8   0  1  0
307  82   0   5   8   0  1  0
308  82   0   7   8   0  1  0
309  82   0   5   8   0  1  0
310  82   0   7   8   0  1  0
311  82   0   5   8   0  1  0
312  82   0   7   8   0  1  0
313  82   0   5   8   0  1  0
314  82   0   7   8   0  1  0
315  82   0   5   8   0  1  0
316  82   0   7   8   0  1  0
317  82   0   5   8   0  1  0
318  82   0   7   8   0  1  0
319  82   0   5   8   0  1  0
320  82   0   7   8   0  1  0
321  82   0   5   8   0  1  0
322  82   0   7   8   0  1  0
323  82   0   5   8   0  1  0
[RF]
1      3.61409 2 3 0 100 0 0
2      36.1408 2 3 0 100 385.5 0

# Format of arbitrary gradients:
#   time_shape_id of 0 means default timing (stepping with grad_raster starting at 1/2 of grad_raster)
# id amplitude amp_shape_id time_shape_id delay
# ..      Hz/m       ..         ..          us
[GRADIENTS]
1       144060 1 0 100
6      69444.4 4 5 760
8      69444.4 6 7 0
9      69444.4 8 5 0
30      69444.4 4 5 600
32      69444.4 6 9 0

# Format of trapezoid gradients:
# id amplitude rise flat fall delay
# ..      Hz/m   us   us   us    us
[TRAP]
 2      -294384 230    0 230   0
 3      -239583 200    0 200   0
 4      -114583 200    0 200   0
 5       208333 170  480 170   0
 7      -208333 170  480 170   0
10       -93750 200    0 200   0
11     -72916.7 200    0 200   0
12     -52083.3 200    0 200   0
13       -31250 200    0 200   0
14     -10416.7 200    0 200   0
15      10416.7 200    0 200   0
16        31250 200    0 200   0
17      52083.3 200    0 200   0
18      72916.7 200    0 200   0
19        93750 200    0 200   0
20       114583 200    0 200   0
21       135417 200    0 200   0
22       156250 200    0 200   0
23       177083 200    0 200   0
24       197917 200    0 200   0
25       218750 200    0 200   0
26       239583 200    0 200   0
27      -255208 200    0 200   0
28      -195312 160    0 160   0
29       208333 170  320 170   0
31      -208333 170  320 170   0
33      -169271 160    0 160   0
34      -143229 160    0 160   0
35      -117188 160    0 160   0
36     -91145.8 160    0 160   0
37     -65104.2 160    0 160   0
38     -39062.5 160    0 160   0
39     -13020.8 160    0 160   0
40      13020.8 160    0 160   0
41      39062.5 160    0 160   0
42      65104.2 160    0 160   0
43      91145.8 160    0 160   0
44       117187 160    0 160   0
45       143229 160    0 160   0
46       169271 160    0 160   0
47       195312 160    0 160   0

# Format of ADC events:
# id num dwell delay freq phase
# ..  ..    ns    us   Hz   rad
[ADC]
1 24 20000 170 0 0
2 16 20000 170 385.5 0

# Sequence Shapes
[SHAPES]

shape_id 1
num_samples 1869
0
0.0339061
0.0848109
0.0508744
0
0
64
-0.0847957
-0.0847957
0
-0.0862148
-0.0861843
-0.0862147
-0.0862148
-0.0862148
0
-0.0861843
-0.0862148
-0.0862148
1
-0.0861842
-0.0862148
-0.017243
0.0862148
0.0861843
0.0862148
0.0862148
0
0.0862147
0.0861843
0.0862148
0.0862148
1
0.0861843
0.0862147
0.0850856
0.0847957
0.0169531
0
0
63
-0.0339061
-0.0848109
-0.0853603
-0.0862148
-0.0861843
-0.0862148
-0.0862148
0
-0.0862147
-0.0861843
-0.0862148
-0.0862148
1
-0.0861843
-0.0862147
0.0517288
0.0861996
0.0861995
0.0862148
0.0862148
0
0.0861995
0.0861995
0
0.0862148
0.0862148
0
0.0861995
0.0861996
0.0859248
0.0847957
0.0678427
0
0
64
-0.0678427
-0.0847957
-0.0859248
-0.0861996
-0.0861995
-0.0862148
-0.0862148
0
-0.0861995
-0.0861995
0
-0.0862148
-0.0862148
0
-0.0861995
-0.0861996
-0.0517288
0.0862147
0.0861843
0.0862148
0.0862148
1
0.0861843
0.0862147
0.0862148
0.0862148
0
0.0861843
0.0862148
0.0853603
0.0848109
0.0339061
0
0
63
-0.0169531
-0.0847957
-0.0850856
-0.0862147
-0.0861843
-0.0862148
-0.0862148
1
-0.0861843
-0.0862147
-0.0862148
-0.0862148
0
-0.0861843
-0.0862148
0.017243
0.0862148
0.0861842
0.0862148
0.0862148
1
0.0861843
0.0862148
0.0862148
0
0.0862147
0.0861843
0.0862148
0.0847957
0.0847957
0
0
0
64
-0.0508744
-0.0848109
-0.085635
-0.0862148
-0.0861842
-0.0862148
-0.0862148
1
-0.0861843
-0.0862148
-0.0862148
0
-0.0862147
-0.0861843
-0.0862148
0.0862148
0.0861843
0.0862147
0.0862148
0.0862148
0
0.0861843
0.0862148
0.0862148
1
0.0861842
0.0862148
0.085635
0.0848109
0.0508744
0
0
64
-0.0847957
-0.0847957
0
-0.0862148
-0.0861843
-0.0862147
-0.0862148
-0.0862148
0
-0.0861843
-0.0862148
-0.0862148
1
-0.0861842
-0.0862148
-0.017243
0.0862148
0.0861843
0.0862148
0.0862148
0
0.0862147
0.0861843
0.0862148
0.0862148
1
0.0861843
0.0862147
0.0850856
0.0847957
0.0169531
0
0
63
-0.0339061
-0.0848109
-0.0853603
-0.0862148
-0.0861843
-0.0862148
-0.0862148
0
-0.0862147
-0.0861843
-0.0862148
-0.0862148
1
-0.0861843
-0.0862147
0.0517288
0.0861996
0.0861995
0.0862148
0.0862148
0
0.0861995
0.0861995
0
0.0862148
0.0862148
0
0.0861995
0.0861996
0.0859248
0.0847957
0.0678427
0
0
64
-0.0678427
-0.0847957
-0.0859248
-0.0861996
-0.0861995
-0.0862148
-0.0862148
0
-0.0861995
-0.0861995
0
-0.0862148
-0.0862148
0
-0.0861995
-0.0861996
-0.0517288
0.0862147
0.0861843
0.0862148
0.0862148
1
0.0861843
0.0862147
0.0862148
0.0862148
0
0.0861843
0.0862148
0.0853603
0.0848109
0.0339061
0
0
63
-0.0169531
-0.0847957
-0.0850856
-0.0862147
-0.0861843
-0.0862148
-0.0862148
1
-0.0861843
-0.0862147
-0.0862148
-0.0862148
0
-0.0861843
-0.0862148
0.017243
0.0862148
0.0861842
0.0862148
0.0862148
1
0.0861843
0.0862148
0.0862148
0
0.0862147
0.0861843
0.0862148
0.0847957
0.0847957
0
0
0
64
-0.0508744
-0.0848109
-0.085635
-0.0862148
-0.0861842
-0.0862148
-0.0862148
1
-0.0861843
-0.0862148
-0.0862148
0
-0.0862147
-0.0861843
-0.0862148
0.0862148
0.0861843
0.0862147
0.0862148
0.0862148
0
0.0861843
0.0862148
0.0862148
1
0.0861842
0.0862148
0.085635
0.0848109
0.0508744
0
0
64
-0.0847957
-0.0847957
0
-0.0862148
-0.0861843
-0.0862147
-0.0862148
-0.0862148
0
-0.0861843
-0.0862148
-0.0862148
1
-0.0861842
-0.0862148
-0.017243
0.0862148
0.0861843
0.0862148
0.0862148
0
0.0862147
0.0861843
0.0862148
0.0862148
1
0.0861843
0.0862147
0.0850856
0.0847957
0.0169531
0
0
63
-0.0339061
-0.0848109
-0.0853603
-0.0862148
-0.0861843
-0.0862148
-0.0862148
0
-0.0862147
-0.0861843
-0.0862148
-0.0862148
1
-0.0861843
-0.0862147
0.0517288
0.0861996
0.0861995
0.0862148
0.0862148
0
0.0861995
0.0861995
0
0.0862148
0.0862148
0
0.0861995
0.0861996
0.0859248
0.0847957
0.0678427
0
0
64
-0.0678427
-0.0847957
-0.0859248
-0.0861996
-0.0861995
-0.0862148
-0.0862148
0
-0.0861995
-0.0861995
0
-0.0862148
-0.0862148
0
-0.0861995
-0.0861996
-0.0517288
0.0862147
0.0861843
0.0862148
0.0862148
1
0.0861843
0.0862147
0.0862148
0.0862148
0
0.0861843
0.0862148
0.0853603
0.0848109
0.0339061
0
0
63
-0.0169531
-0.0847957
-0.0850856
-0.0862147
-0.0861843
-0.0862148
-0.0862148
1
-0.0861843
-0.0862147
-0.0862148
-0.0862148
0
-0.0861843
-0.0862148
0.017243
0.0862148
0.0861842
0.0862148
0.0862148
1
0.0861843
0.0862148
0.0862148
0
0.0862147
0.0861843
0.0862148
0.0847957
0.0847957
0
0
0
64
-0.0508744
-0.0848109
-0.085635
-0.0862148
-0.0861842
-0.0862148
-0.0862148
1
-0.0861843
-0.0862148
-0.0862148
0
-0.0862147
-0.0861843
-0.0862148
0.0862148
0.0861843
0.0862147
0.0862148
0.0862148
0
0.0861843
0.0862148
0.0862148
1
0.0861842
0.0862148
0.085635
0.0848109
0.0508744
0
0
64
-0.0847957
-0.0847957
0
-0.0862148
-0.0861843
-0.0862147
-0.0862148
-0.0862148
0
-0.0861843
-0.0862148
-0.0862148
1
-0.0861842
-0.0862148
-0.017243
0.0862148
0.0861843
0.0862148
0.0862148
0
0.0862147
0.0861843
0.0862148
0.0862148
1
0.0861843
0.0862147
0.0850856
0.0847957
0.0169531
0
0
63
-0.0339061
-0.0848109
-0.0853603
-0.0862148
-0.0861843
-0.0862148
-0.0862148
0
-0.0862147
-0.0861843
-0.0862148
-0.0862148
1
-0.0861843
-0.0862147
0.0517288
0.0861996
0.0861995
0.0862148
0.0862148
0
0.0861995
0.0861995
0
0.0862148
0.0862148
0
0.0861995
0.0861996
0.0859248
0.0847957
0.0678427
0
0
64
-0.0678427
-0.0847957
-0.0859248
-0.0861996
-0.0861995
-0.0862148
-0.0862148
0
-0.0861995
-0.0861995
0
-0.0862148
-0.0862148
0
-0.0861995
-0.0861996
-0.0517288
0.0862147
0.0861843
0.0862148
0.0862148
1
0.0861843
0.0862147
0.0862148
0.0862148
0
0.0861843
0.0862148
0.0853603
0.0848109
0.0339061
0
0
63
-0.0169531
-0.0847957
-0.0850856
-0.0862147
-0.0861843
-0.0862148
-0.0862148
1
-0.0861843
-0.0862147
-0.0862148
-0.0862148
0
-0.0861843
-0.0862148
0.017243
0.0862148
0.0861842
0.0862148
0.0862148
1
0.0861843
0.0862148
0.0862148
0
0.0862147
0.0861843
0.0862148
0.0847957
0.0847957
0
0
0
64
-0.0508744
-0.0848109
-0.0834376
-0.0825526
-0.0825831
-0.0825526
-0.0825525
-0.0825526
-0.0825831
-0.0825526
-0.0495315
0.0825526
0.0825525
0.0825831
0.0825526
0.0825526
0
0.0825525
0.0825831
0.0825526
0.0165105
0

shape_id 2
num_samples 18691
0
0
18
0.0001026
0.0001027
0.0001026
0.0001027
6.84e-05
6.84e-05
1
6.85e-05
8.79e-05
8.8e-05
8.8e-05
1
0.0001173
0.0001173
2
6.11e-05
6.11e-05
2
6.35e-05
6.35e-05
0
6.36e-05
6.35e-05
6.84e-05
6.85e-05
6.84e-05
6.84e-05
0
7.33e-05
7.33e-05
0
7.34e-05
7.33e-05
7.33e-05
3
7.58e-05
7.57e-05
7.58e-05
7.58e-05
0
8.06e-05
8.06e-05
0
8.07e-05
8.06e-05
8.07e-05
8.06e-05
8.07e-05
8.06e-05
8.07e-05
8.06e-05
8.07e-05
8.06e-05
8.31e-05
8.31e-05
2
8.06e-05
8.06e-05
0
8.07e-05
8.06e-05
8.07e-05
8.06e-05
8.07e-05
8.06e-05
8.07e-05
8.06e-05
8.06e-05
0
8.07e-05
7.58e-05
7.57e-05
7.58e-05
7.57e-05
7.33e-05
7.34e-05
7.33e-05
7.33e-05
0
7.09e-05
7.08e-05
7.09e-05
7.09e-05
0
6.35e-05
6.35e-05
0
6.36e-05
6.35e-05
5.87e-05
5.86e-05
5.87e-05
5.86e-05
5.13e-05
5.14e-05
5.13e-05
5.13e-05
0
4.15e-05
4.16e-05
4.15e-05
4.16e-05
3.42e-05
3.42e-05
2
2.2e-05
2.2e-05
2
1.22e-05
1.22e-05
0
1.23e-05
1.22e-05
0
0
2
-1.47e-05
-1.46e-05
-1.47e-05
-1.47e-05
0
-2.69e-05
-2.68e-05
-2.69e-05
-2.69e-05
0
-4.4e-05
-4.4e-05
2
-6.1e-05
-6.11e-05
-6.11e-05
1
-7.82e-05
-7.82e-05
2
-9.53e-05
-9.54e-05
-9.53e-05
-9.53e-05
0
-0.0001148
-0.0001149
-0.0001148
-0.0001149
-0.0001344
-0.0001344
2
-0.0001564
-0.0001564
2
-0.000176
-0.000176
0
-0.0001759
-0.000176
-0.0002003
-0.0002004
-0.0002004
1
-0.00022
-0.0002199
-0.0002199
0
-0.00022
-0.0002444
-0.0002443
-0.0002444
-0.0002444
0
-0.0002664
-0.0002664
0
-0.0002663
-0.0002664
0.0002297
0.0002297
0
0.0002298
0.0002297
0.0003128
0.0003128
2
0.0003348
0.0003348
2
0.0003568
0.0003568
2
0.0003812
0.0003812
0
0.0003813
0.0003812
0.0004032
0.0004032
0
0.0004033
0.0004032
0.0004228
0.0004227
0.0004228
0.0004228
0
0.0004448
0.0004447
0.0004448
0.0004448
0
0.0004643
0.0004643
1
0.0004644
0.0004814
0.0004814
1
0.0004815
0.0005009
0.000501
0.000501
1
0.0005181
0.000518
0.0005181
0.0005181
0
0.0005328
0.0005327
0.0005328
0.0005327
0.000545
0.0005449
0.000545
0.000545
0
0.0005596
0.0005596
0
0.0005597
0.0005596
0.0005694
0.0005694
2
0.0005767
0.0005768
0.0005767
0.0005767
0
0.0005865
0.0005866
0.0005865
0.0005865
0
0.0005889
0.000589
0.0005889
0.000589
0.0005938
0.0005939
0.0005938
0.0005939
0.0005938
0.0005938
0
0.0005939
0.0005938
0.0005939
0.0005938
0.0005939
0.0005938
0.0005914
0.0005914
2
0.0005841
0.000584
0.0005841
0.0005841
0
0.0005767
0.0005767
0
0.0005768
0.0005767
0.0005694
0.0005694
2
0.0005547
0.0005548
0.0005547
0.0005548
0.0005425
0.0005425
1
0.0005426
0.0005254
0.0005254
2
0.0005083
0.0005083
1
0.0005084
0.0004863
0.0004863
2
0.0004643
0.0004644
0.0004643
0.0004643
0
0.0004399
0.0004399
0
0.0004398
0.0004399
0.0004155
0.0004154
0.0004155
0.0004154
0.0003861
0.0003861
0
0.0003862
0.0003861
0.0003568
0.0003568
2
0.000325
0.000325
1
0.0003251
0.0002932
0.0002933
0.0002932
0.0002933
0.000259
0.0002591
0.000259
0.000259
0
0.0002249
0.0002248
0.0002248
0
0.0002249
0.0001906
0.0001906
2
0.0001515
0.0001516
0.0001515
0.0001515
0
0.0001148
0.0001149
0.0001149
0
0.0001148
7.58e-05
7.57e-05
7.58e-05
7.57e-05
3.91e-05
3.91e-05
0
3.92e-05
3.91e-05
2.4e-06
2.4e-06
0
2.5e-06
2.4e-06
-3.91e-05
-3.91e-05
2
-7.57e-05
-7.58e-05
-7.57e-05
-7.58e-05
-0.0001149
-0.0001148
-0.0001149
-0.0001148
-0.0001516
-0.0001515
-0.0001515
1
-0.0001882
-0.0001881
-0.0001882
-0.0001882
0
-0.0002248
-0.0002248
0
-0.0002249
-0.0002248
-0.000259
-0.0002591
-0.000259
-0.0002591
-0.0002932
-0.0002933
-0.0002932
-0.0002933
-0.0003275
-0.0003274
-0.0003275
-0.0003275
0
-0.0003592
-0.0003592
0
-0.0003593
-0.0003592
-0.0003861
-0.0003862
-0.0003861
-0.0003861
0
-0.0004179
-0.0004179
1
-0.0004178
-0.0004424
-0.0004423
-0.0004423
0
-0.0004424
-0.0004692
-0.0004692
2
-0.0004912
-0.0004912
2
-0.0005107
-0.0005108
-0.0005108
0
-0.0005107
-0.0005328
-0.0005327
-0.0005327
0
-0.0005328
-0.0005474
-0.0005474
2
-0.0005621
-0.0005621
0
-0.000562
-0.0005621
-0.0005743
-0.0005743
2
-0.0005865
-0.0005865
2
-0.0005939
-0.0005938
-0.0005939
-0.0005938
-0.0005987
-0.0005988
-0.0005987
-0.0005987
0
-0.0006036
-0.0006036
0
-0.0006037
-0.0006036
-0.000606
-0.0006061
-0.0006061
0
-0.000606
-0.0006061
-0.000606
-0.0006061
-0.0006061
0
-0.0006011
-0.0006012
-0.0006012
1
-0.0005987
-0.0005987
1
-0.0005988
-0.0005889
-0.000589
-0.0005889
-0.000589
-0.0005841
-0.000584
-0.0005841
-0.0005841
0
-0.0005718
-0.0005718
0
-0.0005719
-0.0005718
-0.0005621
-0.0005621
1
-0.000562
-0.000545
-0.000545
0
-0.0005449
-0.000545
-0.0005327
-0.0005328
-0.0005327
-0.0005328
-0.0005156
-0.0005157
-0.0005156
-0.0005156
0
-0.0004986
-0.0004985
-0.0004985
0
-0.0004986
-0.000479
-0.0004789
-0.000479
-0.000479
0
-0.0004594
-0.0004595
-0.0004594
-0.0004594
0
-0.0004399
-0.0004399
2
-0.0004154
-0.0004155
-0.0004154
-0.0004155
-0.0003959
-0.0003958
-0.0003959
-0.0003959
0
-0.0003715
-0.0003714
-0.0003715
-0.0003715
0
-0.0003494
-0.0003495
-0.0003494
-0.0003495
-0.0001295
-0.0001296
-0.0001295
-0.0001295
0
0.0003006
0.0003006
2
0.0002785
0.0002786
0.0002786
1
0.0002542
0.0002541
0.0002542
0.0002541
0.0002322
0.0002322
0
0.0002321
0.0002322
0.0002077
0.0002077
1
0.0002078
0.0001833
0.0001832
0.0001833
0.0001833
0
0.0001637
0.0001638
0.0001637
0.0001637
0
0.0001418
0.0001417
0.0001418
0.0001417
0.0001198
0.0001197
0.0001197
0
0.0001198
9.77e-05
9.78e-05
9.77e-05
9.78e-05
8.06e-05
8.07e-05
8.06e-05
8.07e-05
6.11e-05
6.11e-05
2
4.39e-05
4.4e-05
4.4e-05
1
2.44e-05
2.45e-05
2.44e-05
2.45e-05
1.22e-05
1.22e-05
2
-4.9e-06
-4.8e-06
-4.9e-06
-4.9e-06
0
-1.71e-05
-1.71e-05
2
-3.18e-05
-3.18e-05
0
-3.17e-05
-3.18e-05
-4.16e-05
-4.15e-05
-4.16e-05
-4.15e-05
-5.38e-05
-5.37e-05
-5.38e-05
-5.37e-05
-6.11e-05
-6.11e-05
2
-7.09e-05
-7.09e-05
0
-7.08e-05
-7.09e-05
-7.58e-05
-7.57e-05
-7.58e-05
-7.57e-05
-8.56e-05
-8.55e-05
-8.55e-05
0
-8.56e-05
-8.79e-05
-8.8e-05
-8.8e-05
1
-9.28e-05
-9.29e-05
-9.29e-05
0
-9.28e-05
-9.53e-05
-9.53e-05
0
-9.54e-05
-9.53e-05
-0.0001002
-0.0001002
1
-0.0001001
-9.78e-05
-9.77e-05
-9.78e-05
-9.78e-05
0
-0.0001026
-0.0001026
0
-0.0001027
-0.0001026
-0.0001002
-0.0001002
2
-9.77e-05
-9.78e-05
-9.77e-05
-9.78e-05
-0.0001002
-0.0001002
2
-9.53e-05
-9.53e-05
2
-9.29e-05
-9.28e-05
-9.29e-05
-9.29e-05
0
-9.04e-05
-9.04e-05
1
-9.05e-05
-8.55e-05
-8.55e-05
1
-8.56e-05
-8.31e-05
-8.31e-05
0
-8.3e-05
-8.31e-05
-0.0001638
-0.0001637
-0.0001637
0
-0.0001638
-0.0001246
-0.0001246
0
-0.0001247
-0.0001246
-9.53e-05
-9.53e-05
2
-0.0001516
-0.0001515
-0.0001515
1
0
0
238
0.0001979
0.000198
0.0001979
0.000198
0.0001271
0.000127
0.0001271
0.0001271
0
0.0001637
0.0001638
0.0001637
0.0001637
0
0.0002151
0.000215
0.0002151
0.000215
0.0001076
0.0001075
0.0001075
0
0.0001076
0.0001148
0.0001149
0.0001148
0.0001149
0.0001197
0.0001198
0.0001197
0.0001198
0.0001246
0.0001246
0
0.0001247
0.0001246
0.0001295
0.0001295
0
0.0001296
0.0001295
0.0001295
1
0.0001296
0.0001295
0.0001344
0.0001344
2
0.0001369
0.0001368
0.0001369
0.0001368
0.0001369
0.0001368
0.0001369
0.0001368
0.0001369
0.0001368
0.0001369
0.0001368
0.0001344
0.0001345
0.0001344
0.0001344
0
0.0001319
0.000132
0.000132
0
0.0001319
0.0001296
0.0001295
0.0001295
1
0.0001222
0.0001222
2
0.0001173
0.0001173
2
0.00011
0.0001099
0.00011
0.00011
0
0.0001002
0.0001002
1
0.0001001
8.8e-05
8.8e-05
2
7.57e-05
7.58e-05
7.57e-05
7.58e-05
6.35e-05
6.36e-05
6.35e-05
6.35e-05
0
4.65e-05
4.64e-05
4.64e-05
0
4.65e-05
2.93e-05
2.93e-05
1
2.94e-05
1.22e-05
1.22e-05
2
-9.7e-06
-9.8e-06
-9.8e-06
1
-3.42e-05
-3.42e-05
2
-5.38e-05
-5.37e-05
-5.38e-05
-5.38e-05
0
-8.06e-05
-8.07e-05
-8.06e-05
-8.06e-05
0
-0.0001076
-0.0001075
-0.0001075
0
-0.0001076
-0.0001368
-0.0001369
-0.0001368
-0.0001369
-0.0001637
-0.0001637
0
-0.0001638
-0.0001637
-0.0001955
-0.0001955
2
-0.0002273
-0.0002273
0
-0.0002272
-0.0002273
-0.000259
-0.0002591
-0.000259
-0.0002591
-0.0002932
-0.0002933
-0.0002932
-0.0002933
-0.0003275
-0.0003274
-0.0003275
-0.0003275
0
-0.0003641
-0.0003641
1
-0.0003642
-0.0003983
-0.0003983
0
-0.0003984
-0.0003983
-0.000435
-0.000435
2
0.0003739
0.0003739
2
0.0005059
0.0005058
0.0005059
0.0005059
0
0.0005425
0.0005425
1
0.0005426
0.0005791
0.0005792
0.0005792
1
0.0006158
0.0006158
0
0.0006159
0.0006158
0.0006501
0.00065
0.0006501
0.00065
0.0006818
0.0006818
0
0.0006819
0.0006818
0.000716
0.000716
0
0.0007161
0.000716
0.0007478
0.0007478
2
0.0007771
0.0007772
0.0007771
0.0007771
0
0.000804
0.000804
2
0.0008334
0.0008333
0.0008333
0
0.0008334
0.0008553
0.0008553
0
0.0008554
0.0008553
0.0008798
0.0008797
0.0008798
0.0008797
0.0008994
0.0008993
0.0008993
1
0.0009164
0.0009165
0.0009164
0.0009164
0
0.0009335
0.0009336
0.0009335
0.0009335
0
0.0009433
0.0009433
2
0.0009531
0.0009531
1
0.000953
0.0009605
0.0009604
0.0009604
1
0.0009628
0.0009629
0.0009629
0
0.0009628
0.0009629
0.0009628
0.0009629
0.0009628
0.000958
0.000958
0
0.0009579
0.000958
0.0009531
0.0009531
0
0.000953
0.0009531
0.0009433
0.0009433
2
0.0009287
0.0009286
0.0009286
0
0.0009287
0.0009115
0.0009116
0.0009115
0.0009115
0
0.000892
0.000892
2
0.0008675
0.0008676
0.0008675
0.0008676
0.0008406
0.0008407
0.0008406
0.0008407
0.0008113
0.0008114
0.0008113
0.0008114
0.0007771
0.0007771
1
0.0007772
0.0007404
0.0007405
0.0007405
0
0.0007404
0.0007014
0.0007014
1
0.0007013
0.0006574
0.0006574
1
0.0006573
0.000611
0.0006109
0.000611
0.0006109
0.000567
0.000567
0
0.0005669
0.000567
0.0005132
0.0005132
2
0.0004618
0.0004619
0.0004619
1
0.0004081
0.0004081
2
0.0003495
0.0003494
0.0003495
0.0003495
0
0.0002932
0.0002933
0.0002932
0.0002933
0.0002346
0.0002346
2
0.0001735
0.0001735
2
0.0001125
0.0001124
0.0001124
1
4.89e-05
4.89e-05
0
4.88e-05
4.89e-05
-9.8e-06
-9.7e-06
-9.8e-06
-9.8e-06
0
-7.58e-05
-7.57e-05
-7.58e-05
-7.57e-05
-0.0001344
-0.0001344
1
-0.0001345
-0.0002003
-0.0002004
-0.0002004
1
-0.0002566
-0.0002566
2
-0.0003202
-0.0003201
-0.0003201
0
-0.0003202
-0.0003787
-0.0003788
-0.0003788
1
-0.000435
-0.000435
2
-0.0004912
-0.0004912
2
-0.000545
-0.0005449
-0.000545
-0.000545
0
-0.0005963
-0.0005962
-0.0005963
-0.0005963
0
-0.0006476
-0.0006476
2
-0.0006941
-0.000694
-0.000694
0
-0.0006941
-0.000738
-0.000738
0
-0.0007381
-0.000738
-0.0007795
-0.0007796
-0.0007796
1
-0.0008162
-0.0008162
1
-0.0008163
-0.0008528
-0.0008529
-0.0008529
1
-0.0008847
-0.0008846
-0.0008847
-0.0008846
-0.000914
-0.000914
0
-0.0009139
-0.000914
-0.0009384
-0.0009385
-0.0009384
-0.0009384
0
-0.0009604
-0.0009604
2
-0.0009776
-0.0009775
-0.0009775
1
-0.0009946
-0.0009946
0
-0.0009947
-0.0009946
-0.0010044
-0.0010044
2
-0.0010093
-0.0010093
1
-0.0010092
-0.0010167
-0.0010166
-0.0010166
1
-0.0010142
-0.0010142
0
-0.0010141
-0.0010142
-0.0010117
-0.0010118
-0.0010117
-0.0010117
0
-0.0010044
-0.0010044
2
-0.0009971
-0.0009971
0
-0.000997
-0.0009971
-0.00098
-0.0009799
-0.00098
-0.0009799
-0.0009678
-0.0009677
-0.0009678
-0.0009677
-0.0009458
-0.0009457
-0.0009457
0
-0.0009458
-0.0009237
-0.0009238
-0.0009238
0
-0.0009237
-0.0009018
-0.0009017
-0.0009018
-0.0009017
-0.0008725
-0.0008724
-0.0008724
0
-0.0008725
-0.0008455
-0.0008456
-0.0008455
-0.0008456
-0.0008113
-0.0008114
-0.0008113
-0.0008113
0
-0.0007796
-0.0007796
1
-0.0007795
-0.0007454
-0.0007453
-0.0007454
-0.0007454
0
-0.0007087
-0.0007087
2
-0.000672
-0.000672
0
-0.0006721
-0.000672
-0.0006305
-0.0006305
2
-0.0002371
-0.000237
-0.0002371
-0.000237
0.0005523
0.0005523
2
0.0005132
0.0005132
2
0.0004716
0.0004717
0.0004716
0.0004717
0.0004301
0.0004301
2
0.000391
0.000391
2
0.0003519
0.0003519
1
0.000352
0.0003103
0.0003104
0.0003103
0.0003104
0.0002713
0.0002712
0.0002713
0.0002712
0.0002346
0.0002347
0.0002346
0.0002346
0
0.0001955
0.0001955
2
0.0001613
0.0001613
0
0.0001612
0.0001613
0.0001271
0.0001271
1
0.000127
9.29e-05
9.29e-05
0
9.28e-05
9.29e-05
6.35e-05
6.36e-05
6.35e-05
6.36e-05
3.17e-05
3.18e-05
3.18e-05
0
3.17e-05
4.9e-06
4.9e-06
2
-2.2e-05
-2.2e-05
2
-4.64e-05
-4.65e-05
-4.64e-05
-4.64e-05
0
-6.84e-05
-6.85e-05
-6.84e-05
-6.84e-05
0
-9.04e-05
-9.05e-05
-9.04e-05
-9.04e-05
0
-0.0001075
-0.0001076
-0.0001075
-0.0001075
0
-0.0001247
-0.0001246
-0.0001246
0
-0.0001247
-0.0001417
-0.0001417
0
-0.0001418
-0.0001417
-0.0001515
-0.0001515
0
-0.0001516
-0.0001515
-0.0001637
-0.0001637
0
-0.0001638
-0.0001637
-0.0001735
-0.0001735
2
-0.0001809
-0.0001808
-0.0001809
-0.0001808
-0.0001857
-0.0001858
