# Pulseq sequence file
# Created by PyPulseq

[VERSION]
major 1
minor 4
revision 0

[DEFINITIONS]
AdcRasterTime 1e-07 
BlockDurationRaster 1e-05 
GradientRasterTime 1e-05 
RadiofrequencyRasterTime 1e-06 

# Format of blocks:
# NUM DUR RF  GX  GY  GZ  ADC  EXT
[BLOCKS]
   1 2098   1   0   0   1  0  0
   2   1   0   0   0   0  0  0
   3  46   0   2   3   4  0  0
   4  82   0   5   6   0  1  0
   5  82   0   7   8   0  1  0
   6  82   0   5   8   0  1  0
   7  82   0   7   8   0  1  0
   8  82   0   5   8   0  1  0
   9  82   0   7   8   0  1  0
  10  82   0   5   8   0  1  0
  11  82   0   7   8   0  1  0
  12  82   0   5   8   0  1  0
  13  82   0   7   8   0  1  0
  14  82   0   5   8   0  1  0
  15  82   0   7   8   0  1  0
  16  82   0   5   8   0  1  0
  17  82   0   7   8   0  1  0
  18  82   0   5   8   0  1  0
  19  82   0   7   8   0  1  0
  20  82   0   5   8   0  1  0
  21  82   0   7   8   0  1  0
  22  82   0   5   8   0  1  0
  23  82   0   7   8   0  1  0
  24  82   0   5   8   0  1  0
  25  82   0   7   8   0  1  0
  26  82   0   5   8   0  1  0
  27  82   0   7   9   0  1  0
  28  82   0   5  10   0  1  0
  29  82   0   7  11   0  1  0
  30  82   0   5  11   0  1  0
  31  82   0   7  11   0  1  0
  32  82   0   5  11   0  1  0
  33  82   0   7  11   0  1  0
  34  82   0   5  11   0  1  0
  35  82   0   7  11   0  1  0
  36  82   0   5  11   0  1  0
  37  82   0   7  11   0  1  0
  38  82   0   5  11   0  1  0
  39  82   0   7  11   0  1  0
  40  82   0   5  11   0  1  0
  41  82   0   7  11   0  1  0
  42  82   0   5  11   0  1  0
  43  82   0   7  11   0  1  0
  44  82   0   5  11   0  1  0
  45  82   0   7  11   0  1  0
  46  82   0   5  11   0  1  0
  47  82   0   7  11   0  1  0
  48  82   0   5  11   0  1  0
  49  82   0   7  11   0  1  0
  50  82   0   5  11   0  1  0
  51  82   0   7  12   0  1  0
  52  82   0   5   6   0  1  0
  53  82   0   7   8   0  1  0
  54  82   0   5   8   0  1  0
  55  82   0   7   8   0  1  0
  56  82   0   5   8   0  1  0
  57  82   0   7   8   0  1  0
  58  82   0   5   8   0  1  0
  59  82   0   7   8   0  1  0
  60  82   0   5   8   0  1  0
  61  82   0   7   8   0  1  0
  62  82   0   5   8   0  1  0
  63  82   0   7   8   0  1  0
  64  82   0   5   8   0  1  0
  65  82   0   7   8   0  1  0
  66  82   0   5   8   0  1  0
  67  82   0   7   8   0  1  0
  68  82   0   5   8   0  1  0
  69  82   0   7   8   0  1  0
  70  82   0   5   8   0  1  0
  71  82   0   7   8   0  1  0
  72  82   0   5   8   0  1  0
  73  82   0   7   8   0  1  0
  74  82   0   5   8   0  1  0
  75  82   0   7   9   0  1  0
  76  82   0   5  10   0  1  0
  77  82   0   7  11   0  1  0
  78  82   0   5  11   0  1  0
  79  82   0   7  11   0  1  0
  80  82   0   5  11   0  1  0
  81  82   0   7  11   0  1  0
  82  82   0   5  11   0  1  0
  83  82   0   7  11   0  1  0
  84  82   0   5  11   0  1  0
  85  82   0   7  11   0  1  0
  86  82   0   5  11   0  1  0
  87  82   0   7  11   0  1  0
  88  82   0   5  11   0  1  0
  89  82   0   7  11   0  1  0
  90  82   0   5  11   0  1  0
  91  82   0   7  11   0  1  0
  92  82   0   5  11   0  1  0
  93  82   0   7  11   0  1  0
  94  82   0   5  11   0  1  0
  95  82   0   7  11   0  1  0
  96  82   0   5  11   0  1  0
  97  82   0   7  11   0  1  0
  98  82   0   5  11   0  1  0
  99  82   0   7  12   0  1  0
 100  82   0   5   6   0  1  0
 101  82   0   7   8   0  1  0
 102  82   0   5   8   0  1  0
 103  82   0   7   8   0  1  0
 104  82   0   5   8   0  1  0
 105  82   0   7   8   0  1  0
 106  82   0   5   8   0  1  0
 107  82   0   7   8   0  1  0
 108  82   0   5   8   0  1  0
 109  82   0   7   8   0  1  0
 110  82   0   5   8   0  1  0
 111  82   0   7   8   0  1  0
 112  82   0   5   8   0  1  0
 113  82   0   7   8   0  1  0
 114  82   0   5   8   0  1  0
 115  82   0   7   8   0  1  0
 116  82   0   5   8   0  1  0
 117  82   0   7   8   0  1  0
 118  82   0   5   8   0  1  0
 119  82   0   7   8   0  1  0
 120  82   0   5   8   0  1  0
 121  82   0   7   8   0  1  0
 122  82   0   5   8   0  1  0
 123  82   0   7   9   0  1  0
 124 2098   1   0   0   1  0  0
 125   1   0   0   0   0  0  0
 126  46   0   2   3  13  0  0
 127  82   0   5   6   0  1  0
 128  82   0   7   8   0  1  0
 129  82   0   5   8   0  1  0
 130  82   0   7   8   0  1  0
 131  82   0   5   8   0  1  0
 132  82   0   7   8   0  1  0
 133  82   0   5   8   0  1  0
 134  82   0   7   8   0  1  0
 135  82   0   5   8   0  1  0
 136  82   0   7   8   0  1  0
 137  82   0   5   8   0  1  0
 138  82   0   7   8   0  1  0
 139  82   0   5   8   0  1  0
 140  82   0   7   8   0  1  0
 141  82   0   5   8   0  1  0
 142  82   0   7   8   0  1  0
 143  82   0   5   8   0  1  0
 144  82   0   7   8   0  1  0
 145  82   0   5   8   0  1  0
 146  82   0   7   8   0  1  0
 147  82   0   5   8   0  1  0
 148  82   0   7   8   0  1  0
 149  82   0   5   8   0  1  0
 150  82   0   7   9   0  1  0
 151  82   0   5  10   0  1  0
 152  82   0   7  11   0  1  0
 153  82   0   5  11   0  1  0
 154  82   0   7  11   0  1  0
 155  82   0   5  11   0  1  0
 156  82   0   7  11   0  1  0
 157  82   0   5  11   0  1  0
 158  82   0   7  11   0  1  0
 159  82   0   5  11   0  1  0
 160  82   0   7  11   0  1  0
 161  82   0   5  11   0  1  0
 162  82   0   7  11   0  1  0
 163  82   0   5  11   0  1  0
 164  82   0   7  11   0  1  0
 165  82   0   5  11   0  1  0
 166  82   0   7  11   0  1  0
 167  82   0   5  11   0  1  0
 168  82   0   7  11   0  1  0
 169  82   0   5  11   0  1  0
 170  82   0   7  11   0  1  0
 171  82   0   5  11   0  1  0
 172  82   0   7  11   0  1  0
 173  82   0   5  11   0  1  0
 174  82   0   7  12   0  1  0
 175  82   0   5   6   0  1  0
 176  82   0   7   8   0  1  0
 177  82   0   5   8   0  1  0
 178  82   0   7   8   0  1  0
 179  82   0   5   8   0  1  0
 180  82   0   7   8   0  1  0
 181  82   0   5   8   0  1  0
 182  82   0   7   8   0  1  0
 183  82   0   5   8   0  1  0
 184  82   0   7   8   0  1  0
 185  82   0   5   8   0  1  0
 186  82   0   7   8   0  1  0
 187  82   0   5   8   0  1  0
 188  82   0   7   8   0  1  0
 189  82   0   5   8   0  1  0
 190  82   0   7   8   0  1  0
 191  82   0   5   8   0  1  0
 192  82   0   7   8   0  1  0
 193  82   0   5   8   0  1  0
 194  82   0   7   8   0  1  0
 195  82   0   5   8   0  1  0
 196  82   0   7   8   0  1  0
 197  82   0   5   8   0  1  0
 198  82   0   7   9   0  1  0
 199  82   0   5  10   0  1  0
 200  82   0   7  11   0  1  0
 201  82   0   5  11   0  1  0
 202  82   0   7  11   0  1  0
 203  82   0   5  11   0  1  0
 204  82   0   7  11   0  1  0
 205  82   0   5  11   0  1  0
 206  82   0   7  11   0  1  0
 207  82   0   5  11   0  1  0
 208  82   0   7  11   0  1  0
 209  82   0   5  11   0  1  0
 210  82   0   7  11   0  1  0
 211  82   0   5  11   0  1  0
 212  82   0   7  11   0  1  0
 213  82   0   5  11   0  1  0
 214  82   0   7  11   0  1  0
 215  82   0   5  11   0  1  0
 216  82   0   7  11   0  1  0
 217  82   0   5  11   0  1  0
 218  82   0   7  11   0  1  0
 219  82   0   5  11   0  1  0
 220  82   0   7  11   0  1  0
 221  82   0   5  11   0  1  0
 222  82   0   7  12   0  1  0
 223  82   0   5   6   0  1  0
 224  82   0   7   8   0  1  0
 225  82   0   5   8   0  1  0
 226  82   0   7   8   0  1  0
 227  82   0   5   8   0  1  0
 228  82   0   7   8   0  1  0
 229  82   0   5   8   0  1  0
 230  82   0   7   8   0  1  0
 231  82   0   5   8   0  1  0
 232  82   0   7   8   0  1  0
 233  82   0   5   8   0  1  0
 234  82   0   7   8   0  1  0
 235  82   0   5   8   0  1  0
 236  82   0   7   8   0  1  0
 237  82   0   5   8   0  1  0
 238  82   0   7   8   0  1  0
 239  82   0   5   8   0  1  0
 240  82   0   7   8   0  1  0
 241  82   0   5   8   0  1  0
 242  82   0   7   8   0  1  0
 243  82   0   5   8   0  1  0
 244  82   0   7   8   0  1  0
 245  82   0   5   8   0  1  0
 246  82   0   7   9   0  1  0
 247 2098   1   0   0   1  0  0
 248   1   0   0   0   0  0  0
 249  46   0   2   3  14  0  0
 250  82   0   5   6   0  1  0
 251  82   0   7   8   0  1  0
 252  82   0   5   8   0  1  0
 253  82   0   7   8   0  1  0
 254  82   0   5   8   0  1  0
 255  82   0   7   8   0  1  0
 256  82   0   5   8   0  1  0
 257  82   0   7   8   0  1  0
 258  82   0   5   8   0  1  0
 259  82   0   7   8   0  1  0
 260  82   0   5   8   0  1  0
 261  82   0   7   8   0  1  0
 262  82   0   5   8   0  1  0
 263  82   0   7   8   0  1  0
 264  82   0   5   8   0  1  0
 265  82   0   7   8   0  1  0
 266  82   0   5   8   0  1  0
 267  82   0   7   8   0  1  0
 268  82   0   5   8   0  1  0
 269  82   0   7   8   0  1  0
 270  82   0   5   8   0  1  0
 271  82   0   7   8   0  1  0
 272  82   0   5   8   0  1  0
 273  82   0   7   9   0  1  0
 274  82   0   5  10   0  1  0
 275  82   0   7  11   0  1  0
 276  82   0   5  11   0  1  0
 277  82   0   7  11   0  1  0
 278  82   0   5  11   0  1  0
 279  82   0   7  11   0  1  0
 280  82   0   5  11   0  1  0
 281  82   0   7  11   0  1  0
 282  82   0   5  11   0  1  0
 283  82   0   7  11   0  1  0
 284  82   0   5  11   0  1  0
 285  82   0   7  11   0  1  0
 286  82   0   5  11   0  1  0
 287  82   0   7  11   0  1  0
 288  82   0   5  11   0  1  0
 289  82   0   7  11   0  1  0
 290  82   0   5  11   0  1  0
 291  82   0   7  11   0  1  0
 292  82   0   5  11   0  1  0
 293  82   0   7  11   0  1  0
 294  82   0   5  11   0  1  0
 295  82   0   7  11   0  1  0
 296  82   0   5  11   0  1  0
 297  82   0   7  12   0  1  0
 298  82   0   5   6   0  1  0
 299  82   0   7   8   0  1  0
 300  82   0   5   8   0  1  0
 301  82   0   7   8   0  1  0
 302  82   0   5   8   0  1  0
 303  82   0   7   8   0  1  0
 304  82   0   5   8   0  1  0
 305  82   0   7   8   0  1  0
 306  82   0   5   8   0  1  0
 307  82   0   7   8   0  1  0
 308  82   0   5   8   0  1  0
 309  82   0   7   8   0  1  0
 310  82   0   5   8   0  1  0
 311  82   0   7   8   0  1  0
 312  82   0   5   8   0  1  0
 313  82   0   7   8   0  1  0
[RF]
1      3.49808 2 3 0 100 0 0
2      34.9808 2 3 0 100 0 0
3      37.7792 2 3 0 100 0 0

# Format of arbitrary gradients:
#   time_shape_id of 0 means default timing (stepping with grad_raster starting at 1/2 of grad_raster)
# id amplitude amp_shape_id time_shape_id delay
# ..      Hz/m       ..         ..          us
[GRADIENTS]
1       146684 1 0 100
6      69444.4 4 5 760
8      69444.4 6 7 0
9      69444.4 8 5 0
10     -69444.4 4 5 760
11     -69444.4 6 7 0
12     -69444.4 8 5 0
32      69444.4 4 5 680
34      69444.4 6 9 0
35     -69444.4 4 5 680
36     -69444.4 6 9 0
55      69444.4 4 5 600
57      69444.4 6 10 0
58     -69444.4 4 5 600
59     -69444.4 6 10 0

# Format of trapezoid gradients:
# id amplitude rise flat fall delay
# ..      Hz/m   us   us   us    us
[TRAP]
 2      -294384 230    0 230   0
 3      -239583 200    0 200   0
 4     -72916.7 200    0 200   0
 5       208333 170  480 170   0
 7      -208333 170  480 170   0
13     -52083.3 200    0 200   0
14       -31250 200    0 200   0
15     -10416.7 200    0 200   0
16      10416.7 200    0 200   0
17        31250 200    0 200   0
18      52083.3 200    0 200   0
19      72916.7 200    0 200   0
20        93750 200    0 200   0
21       114583 200    0 200   0
22       135417 200    0 200   0
23       156250 200    0 200   0
24       177083 200    0 200   0
25       197917 200    0 200   0
26       218750 200    0 200   0
27       239583 200    0 200   0
28      -269886 220    0 220   0
29      -219907 180    0 180   0
30      -127315 180    0 180   0
31       208333 170  400 170   0
33      -208333 170  400 170   0
37      -104167 180    0 180   0
38     -81018.5 180    0 180   0
39     -57870.4 180    0 180   0
40     -34722.2 180    0 180   0
41     -11574.1 180    0 180   0
42      11574.1 180    0 180   0
43      34722.2 180    0 180   0
44      57870.4 180    0 180   0
45      81018.5 180    0 180   0
46       104167 180    0 180   0
47       127315 180    0 180   0
48       150463 180    0 180   0
49       173611 180    0 180   0
50       196759 180    0 180   0
51       219907 180    0 180   0
52      -255208 200    0 200   0
53      -195312 160    0 160   0
54       208333 170  320 170   0
56      -208333 170  320 170   0
60      -169271 160    0 160   0
61      -143229 160    0 160   0
62      -117188 160    0 160   0
63     -91145.8 160    0 160   0
64     -65104.2 160    0 160   0
65     -39062.5 160    0 160   0
66     -13020.8 160    0 160   0
67      13020.8 160    0 160   0
68      39062.5 160    0 160   0
69      65104.2 160    0 160   0
70      91145.8 160    0 160   0
71       117187 160    0 160   0
72       143229 160    0 160   0
73       169271 160    0 160   0
74       195312 160    0 160   0
75       -93750 200    0 200   0
76      -114583 200    0 200   0
77      -135417 200    0 200   0
78      -156250 200    0 200   0
79      -177083 200    0 200   0
80      -197917 200    0 200   0
81      -218750 200    0 200   0
82      -150463 180    0 180   0
83      -173611 180    0 180   0
84      -196759 180    0 180   0
85       117188 160    0 160   0
86      -117187 160    0 160   0

# Format of ADC events:
# id num dwell delay freq phase
# ..  ..    ns    us   Hz   rad
[ADC]
1 24 20000 170 0 0
2 20 20000 170 0 0
3 16 20000 170 0 0

# Sequence Shapes
[SHAPES]

shape_id 1
num_samples 2085
0
0.0292978
0.0732291
0.0439314
0
0
74
-0.0146489
-0.0732139
-0.0758385
-0.0862147
-0.0861843
-0.0862148
-0.0862148
1
-0.0861843
-0.0862147
-0.0862148
-0.0862148
0
-0.0861843
-0.0862148
0.017243
0.0862148
0.0861842
0.0862148
0.0862148
1
0.0861843
0.0862148
0.0862148
0
0.0862147
0.0861843
0.0862148
0.0732444
0.0732139
0
0
75
-0.058565
-0.0732444
-0.0836207
-0.0861996
-0.0861995
-0.0862148
-0.0862148
0
-0.0861995
-0.0861995
0
-0.0862148
-0.0862148
0
-0.0861995
-0.0861996
-0.0517288
0.0862147
0.0861843
0.0862148
0.0862148
1
0.0861843
0.0862147
0.0862148
0.0862148
0
0.0861843
0.0862148
0.0784326
0.0732139
0.0292977
0
0
74
-0.0292977
-0.0732139
-0.0784326
-0.0862148
-0.0861843
-0.0862148
-0.0862148
0
-0.0862147
-0.0861843
-0.0862148
-0.0862148
1
-0.0861843
-0.0862147
0.0517288
0.0861996
0.0861995
0.0862148
0.0862148
0
0.0861995
0.0861995
0
0.0862148
0.0862148
0
0.0861995
0.0861996
0.0836207
0.0732444
0.058565
0
0
75
-0.0732139
-0.0732444
-0.0862148
-0.0861843
-0.0862147
-0.0862148
-0.0862148
0
-0.0861843
-0.0862148
-0.0862148
1
-0.0861842
-0.0862148
-0.017243
0.0862148
0.0861843
0.0862148
0.0862148
0
0.0862147
0.0861843
0.0862148
0.0862148
1
0.0861843
0.0862147
0.0758385
0.0732139
0.0146489
0
0
74
-0.0439314
-0.0732291
-0.0810267
-0.0862148
-0.0861842
-0.0862148
-0.0862148
1
-0.0861843
-0.0862148
-0.0862148
0
-0.0862147
-0.0861843
-0.0862148
0.0862148
0.0861843
0.0862147
0.0862148
0.0862148
0
0.0861843
0.0862148
0.0862148
1
0.0861842
0.0862148
0.0810267
0.0732291
0.0439314
0
0
74
-0.0146489
-0.0732139
-0.0758385
-0.0862147
-0.0861843
-0.0862148
-0.0862148
1
-0.0861843
-0.0862147
-0.0862148
-0.0862148
0
-0.0861843
-0.0862148
0.017243
0.0862148
0.0861842
0.0862148
0.0862148
1
0.0861843
0.0862148
0.0862148
0
0.0862147
0.0861843
0.0862148
0.0732444
0.0732139
0
0
75
-0.058565
-0.0732444
-0.0836207
-0.0861996
-0.0861995
-0.0862148
-0.0862148
0
-0.0861995
-0.0861995
0
-0.0862148
-0.0862148
0
-0.0861995
-0.0861996
-0.0517288
0.0862147
0.0861843
0.0862148
0.0862148
1
0.0861843
0.0862147
0.0862148
0.0862148
0
0.0861843
0.0862148
0.0784326
0.0732139
0.0292977
0
0
74
-0.0292977
-0.0732139
-0.0784326
-0.0862148
-0.0861843
-0.0862148
-0.0862148
0
-0.0862147
-0.0861843
-0.0862148
-0.0862148
1
-0.0861843
-0.0862147
0.0517288
0.0861996
0.0861995
0.0862148
0.0862148
0
0.0861995
0.0861995
0
0.0862148
0.0862148
0
0.0861995
0.0861996
0.0836207
0.0732444
0.058565
0
0
75
-0.0732139
-0.0732444
-0.0862148
-0.0861843
-0.0862147
-0.0862148
-0.0862148
0
-0.0861843
-0.0862148
-0.0862148
1
-0.0861842
-0.0862148
-0.017243
0.0862148
0.0861843
0.0862148
0.0862148
0
0.0862147
0.0861843
0.0862148
0.0862148
1
0.0861843
0.0862147
0.0758385
0.0732139
0.0146489
0
0
74
-0.0439314
-0.0732291
-0.0810267
-0.0862148
-0.0861842
-0.0862148
-0.0862148
1
-0.0861843
-0.0862148
-0.0862148
0
-0.0862147
-0.0861843
-0.0862148
0.0862148
0.0861843
0.0862147
0.0862148
0.0862148
0
0.0861843
0.0862148
0.0862148
1
0.0861842
0.0862148
0.0810267
0.0732291
0.0439314
0
0
74
-0.0146489
-0.0732139
-0.0758385
-0.0862147
-0.0861843
-0.0862148
-0.0862148
1
-0.0861843
-0.0862147
-0.0862148
-0.0862148
0
-0.0861843
-0.0862148
0.017243
0.0862148
0.0861842
0.0862148
0.0862148
1
0.0861843
0.0862148
0.0862148
0
0.0862147
0.0861843
0.0862148
0.0732444
0.0732139
0
0
75
-0.058565
-0.0732444
-0.0836207
-0.0861996
-0.0861995
-0.0862148
-0.0862148
0
-0.0861995
-0.0861995
0
-0.0862148
-0.0862148
0
-0.0861995
-0.0861996
-0.0517288
0.0862147
0.0861843
0.0862148
0.0862148
1
0.0861843
0.0862147
0.0862148
0.0862148
0
0.0861843
0.0862148
0.0784326
0.0732139
0.0292977
0
0
74
-0.0292977
-0.0732139
-0.0784326
-0.0862148
-0.0861843
-0.0862148
-0.0862148
0
-0.0862147
-0.0861843
-0.0862148
-0.0862148
1
-0.0861843
-0.0862147
0.0517288
0.0861996
0.0861995
0.0862148
0.0862148
0
0.0861995
0.0861995
0
0.0862148
0.0862148
0
0.0861995
0.0861996
0.0836207
0.0732444
0.058565
0
0
75
-0.0732139
-0.0732444
-0.0862148
-0.0861843
-0.0862147
-0.0862148
-0.0862148
0
-0.0861843
-0.0862148
-0.0862148
1
-0.0861842
-0.0862148
-0.017243
0.0862148
0.0861843
0.0862148
0.0862148
0
0.0862147
0.0861843
0.0862148
0.0862148
1
0.0861843
0.0862147
0.0758385
0.0732139
0.0146489
0
0
74
-0.0439314
-0.0732291
-0.0810267
-0.0862148
-0.0861842
-0.0862148
-0.0862148
1
-0.0861843
-0.0862148
-0.0862148
0
-0.0862147
-0.0861843
-0.0862148
0.0862148
0.0861843
0.0862147
0.0862148
0.0862148
0
0.0861843
0.0862148
0.0862148
1
0.0861842
0.0862148
0.0810267
0.0732291
0.0439314
0
0
74
-0.0146489
-0.0732139
-0.0758385
-0.0862147
-0.0861843
-0.0862148
-0.0862148
1
-0.0861843
-0.0862147
-0.0862148
-0.0862148
0
-0.0861843
-0.0862148
0.017243
0.0862148
0.0861842
0.0862148
0.0862148
1
0.0861843
0.0862148
0.0862148
0
0.0862147
0.0861843
0.0862148
0.0732444
0.0732139
0
0
75
-0.058565
-0.0732444
-0.0836207
-0.0861996
-0.0861995
-0.0862148
-0.0862148
0
-0.0861995
-0.0861995
0
-0.0862148
-0.0862148
0
-0.0861995
-0.0861996
-0.0517288
0.0862147
0.0861843
0.0862148
0.0862148
1
0.0861843
0.0862147
0.0862148
0.0862148
0
0.0861843
0.0862148
0.0784326
0.0732139
0.0292977
0
0
74
-0.0292977
-0.0732139
-0.0784326
-0.0862148
-0.0861843
-0.0862148
-0.0862148
0
-0.0862147
-0.0861843
-0.0862148
-0.0862148
1
-0.0861843
-0.0862147
0.0517288
0.0861996
0.0861995
0.0862148
0.0862148
0
0.0861995
0.0861995
0
0.0862148
0.0862148
0
0.0861995
0.0861996
0.0836207
0.0732444
0.058565
0
0
75
-0.0732139
-0.0732444
-0.0862148
-0.0861843
-0.0862147
-0.0862148
-0.0862148
0
-0.0861843
-0.0862148
-0.0862148
1
-0.0861842
-0.0862148
-0.017243
0.0862148
0.0861843
0.0862148
0.0862148
0
0.0862147
0.0861843
0.0862148
0.0862148
1
0.0861843
0.0862147
0.0758385
0.0732139
0.0146489
0
0
74
-0.0439314
-0.0732291
-0.0789209
-0.0826746
-0.0827052
-0.0827052
0
-0.0826746
-0.0827052
-0.0826746
-0.0827052
-0.0496231
0.0827052
0.0826899
0.0826899
0
0.0827052
0.0826746
0.0827052
0.0826746
0.0827052
0.016541
0

shape_id 2
num_samples 20850
0
0
30
0.0001026
0.0001027
0.0001026
0.0001027
1.95e-05
1.96e-05
1.95e-05
1.96e-05
1.71e-05
1.71e-05
2
2.2e-05
2.2e-05
2
1.95e-05
1.96e-05
1.95e-05
1.96e-05
2.2e-05
2.2e-05
0
2.19e-05
2.2e-05
2.45e-05
2.44e-05
2.45e-05
2.44e-05
2.44e-05
0
2.45e-05
2.44e-05
2.44e-05
0
2.45e-05
2.44e-05
2.45e-05
2.44e-05
2.44e-05
0
2.45e-05
2.44e-05
2.44e-05
0
2.69e-05
2.69e-05
3
2.68e-05
2.69e-05
2.69e-05
2
2.68e-05
2.69e-05
2.69e-05
3
2.68e-05
2.69e-05
2.69e-05
1
2.93e-05
2.93e-05
0
2.94e-05
2.93e-05
2.69e-05
2.68e-05
2.69e-05
2.69e-05
0
2.44e-05
2.45e-05
2.44e-05
2.45e-05
2.68e-05
2.69e-05
2.69e-05
1
2.44e-05
2.45e-05
2.44e-05
2.44e-05
0
2.2e-05
2.2e-05
10
1.71e-05
1.71e-05
6
1.47e-05
1.46e-05
1.47e-05
1.47e-05
0
9.7e-06
9.8e-06
9.8e-06
1
7.3e-06
7.3e-06
0
7.4e-06
7.3e-06
4.9e-06
4.9e-06
1
4.8e-06
2.5e-06
2.4e-06
2.5e-06
2.4e-06
-2.4e-06
-2.5e-06
-2.4e-06
-2.5e-06
-7.3e-06
-7.3e-06
1
-7.4e-06
-1.22e-05
-1.22e-05
1
-1.23e-05
-1.46e-05
-1.47e-05
-1.46e-05
-1.47e-05
-1.96e-05
-1.95e-05
-1.96e-05
-1.95e-05
-2.69e-05
-2.69e-05
0
-2.68e-05
-2.69e-05
-3.18e-05
-3.18e-05
0
-3.17e-05
-3.18e-05
-3.67e-05
-3.66e-05
-3.67e-05
-3.66e-05
-4.16e-05
-4.15e-05
-4.16e-05
-4.15e-05
-4.89e-05
-4.89e-05
0
-4.88e-05
-4.89e-05
-5.62e-05
-5.62e-05
2
-6.11e-05
-6.11e-05
2
-6.6e-05
-6.6e-05
2
-7.57e-05
-7.58e-05
-7.57e-05
-7.58e-05
-8.06e-05
-8.07e-05
-8.06e-05
-8.07e-05
-8.79e-05
-8.8e-05
-8.8e-05
1
2.2e-05
2.2e-05
2
0.0001026
0.0001027
0.0001026
0.0001027
0.0001099
0.00011
0.00011
0
0.0001099
0.0001149
0.0001149
0
0.0001148
0.0001149
0.0001246
0.0001246
0
0.0001247
0.0001246
0.0001295
0.0001296
0.0001295
0.0001295
0
0.0001368
0.0001369
0.0001369
0
0.0001368
0.0001442
0.0001442
1
0.0001441
0.0001516
0.0001515
0.0001515
1
0.0001564
0.0001564
2
0.0001613
0.0001613
2
0.0001686
0.0001686
1
0.0001687
0.0001759
0.000176
0.0001759
0.000176
0.0001784
0.0001784
2
0.0001857
0.0001857
1
0.0001858
0.0001906
0.0001906
2
0.0001931
0.0001931
0
0.000193
0.0001931
0.0001979
0.000198
0.0001979
0.000198
0.0002004
0.0002003
0.0002004
0.0002004
0
0.0002053
0.0002053
1
0.0002052
0.0002053
0.0002053
2
0.0002101
0.0002102
0.0002102
0
0.0002101
0.0002102
0.0002102
0
0.0002101
0.0002102
0.0002126
0.0002126
2
0.0002102
0.0002102
0
0.0002101
0.0002102
0.0002126
0.0002126
4
0.0002127
0.0002126
0.0002101
0.0002102
0.0002102
0
0.0002101
0.0002078
0.0002077
0.0002077
1
0.0002053
0.0002053
1
0.0002052
0.0002029
0.0002028
0.0002028
0
0.0002029
0.0002004
0.0002004
1
0.0002003
0.0001931
0.0001931
0
0.000193
0.0001931
0.0001906
0.0001906
2
0.0001858
0.0001857
0.0001857
0
0.0001858
0.0001784
0.0001783
0.0001784
0.0001784
0
0.0001736
0.0001735
0.0001735
1
0.0001637
0.0001637
0
0.0001638
0.0001637
0.0001589
0.0001588
0.0001589
0.0001588
0.0001491
0.000149
0.0001491
0.0001491
0
0.0001417
0.0001418
0.0001417
0.0001417
0
0.000132
0.000132
0
0.0001319
0.000132
0.0001222
0.0001222
2
0.0001148
0.0001149
0.0001148
0.0001149
0.0001026
0.0001027
0.0001026
0.0001027
9.04e-05
9.04e-05
2
8.07e-05
8.06e-05
8.07e-05
8.06e-05
7.09e-05
7.09e-05
0
7.08e-05
7.09e-05
5.86e-05
5.87e-05
5.87e-05
0
5.86e-05
4.64e-05
4.65e-05
4.64e-05
4.64e-05
0
3.42e-05
3.43e-05
3.42e-05
3.42e-05
0
2.2e-05
2.2e-05
2
9.7e-06
9.8e-06
9.8e-06
1
0
0
2
-1.47e-05
-1.47e-05
0
-1.46e-05
-1.47e-05
-2.69e-05
-2.69e-05
0
-2.68e-05
-2.69e-05
-3.91e-05
-3.91e-05
2
-4.89e-05
-4.89e-05
0
-4.88e-05
-4.89e-05
-6.36e-05
-6.35e-05
-6.35e-05
0
-6.36e-05
-7.33e-05
-7.33e-05
2
-8.56e-05
-8.55e-05
-8.55e-05
0
-8.56e-05
-9.77e-05
-9.78e-05
-9.77e-05
-9.78e-05
-0.0001075
-0.0001075
0
-0.0001076
-0.0001075
-0.0001197
-0.0001198
-0.0001197
-0.0001198
-0.0001295
-0.0001295
2
-0.0001393
-0.0001393
2
-0.0001491
-0.0001491
0
-0.000149
-0.0001491
-0.0001564
-0.0001564
2
-0.0001662
-0.0001662
1
-0.0001661
-0.000176
-0.0001759
-0.000176
-0.000176
0
-0.0001808
-0.0001808
0
-0.0001809
-0.0001808
-0.0001882
-0.0001882
0
-0.0001881
-0.0001882
-0.0001955
-0.0001955
2
-0.0002029
-0.0002028
-0.0002028
0
-0.0002029
-0.0002052
-0.0002053
-0.0002053
1
-0.0002126
-0.0002126
2
-0.0002151
-0.000215
-0.0002151
-0.000215
-0.00022
-0.0002199
-0.0002199
0
-0.00022
-0.0002199
-0.00022
-0.0002199
-0.00022
-0.0002248
-0.0002248
1
-0.0002249
-0.0002248
-0.0002248
0
-0.0002249
-0.0002248
-0.0002273
-0.0002272
-0.0002273
-0.0002273
1
-0.0002272
-0.0002273
-0.0002273
0
-0.0002248
-0.0002248
0
-0.0002249
-0.0002248
-0.0002248
1
-0.0002249
-0.0002248
-0.0002248
0
-0.0002249
-0.0002248
-0.0002248
0
-0.0002224
-0.0002224
2
-0.0002199
-0.0002199
0
-0.00022
-0.0002199
-0.0002151
-0.000215
-0.0002151
-0.000215
-0.0002126
-0.0002127
-0.0002126
-0.0002126
0
-0.0002077
-0.0002077
1
-0.0002078
-0.0002028
-0.0002028
0
-0.0002029
-0.0002028
-0.0002004
-0.0002004
2
-0.000193
-0.0001931
-0.000193
-0.0001931
-0.0001857
-0.0001858
-0.0001857
-0.0001857
0
-0.0001809
-0.0001808
-0.0001808
0
-0.0001809
-0.0001735
-0.0001735
2
-0.0001686
-0.0001687
-0.0001686
-0.0001686
0
-0.0001589
-0.0001588
-0.0001588
0
-0.0001589
-0.000154
-0.0001539
-0.000154
-0.0001539
-0.0001467
-0.0001466
-0.0001466
1
-0.0001369
-0.0001368
-0.0001369
-0.0001368
0.0001001
0.0001002
0.0001002
1
0.0001222
0.0001222
2
0.0001124
0.0001124
2
0.0001051
0.0001051
2
9.77e-05
9.78e-05
9.77e-05
9.78e-05
9.04e-05
9.04e-05
1
9.05e-05
8.06e-05
8.07e-05
8.06e-05
8.07e-05
7.33e-05
7.33e-05
2
6.6e-05
6.6e-05
1
6.59e-05
5.87e-05
5.86e-05
5.87e-05
5.86e-05
5.14e-05
5.13e-05
5.13e-05
1
4.16e-05
4.15e-05
4.16e-05
4.15e-05
3.67e-05
3.66e-05
3.67e-05
3.66e-05
2.93e-05
2.94e-05
2.93e-05
2.93e-05
0
2.2e-05
2.2e-05
2
1.71e-05
1.71e-05
2
9.8e-06
9.8e-06
1
9.7e-06
4.9e-06
4.9e-06
2
-2.5e-06
-2.4e-06
-2.5e-06
-2.4e-06
-4.9e-06
-4.9e-06
1
-4.8e-06
-1.23e-05
-1.22e-05
-1.22e-05
1
-1.47e-05
-1.46e-05
-1.47e-05
-1.47e-05
0
-1.95e-05
-1.96e-05
-1.95e-05
-1.96e-05
-2.44e-05
-2.45e-05
-2.44e-05
-2.44e-05
0
-2.69e-05
-2.69e-05
2
-3.17e-05
-3.18e-05
-3.18e-05
0
-3.17e-05
-3.18e-05
-3.18e-05
0
-3.17e-05
-3.18e-05
-3.67e-05
-3.66e-05
-3.67e-05
-3.66e-05
-3.67e-05
-3.66e-05
-3.67e-05
-3.67e-05
0
-3.91e-05
-3.91e-05
2
-4.15e-05
-4.16e-05
-4.15e-05
-4.15e-05
0
-4.16e-05
-4.15e-05
-4.16e-05
-4.15e-05
-4.4e-05
-4.4e-05
4
-4.39e-05
-4.4e-05
-4.4e-05
5
-4.39e-05
-4.4e-05
-4.4e-05
6
-4.39e-05
-4.16e-05
-4.15e-05
-4.16e-05
-4.15e-05
-4.16e-05
-4.15e-05
-4.16e-05
-4.15e-05
-4.15e-05
0
-4.16e-05
-4.15e-05
-4.16e-05
-3.91e-05
-3.91e-05
6
-3.66e-05
-3.67e-05
-3.66e-05
-3.67e-05
-3.42e-05
-3.42e-05
1
-3.43e-05
-3.42e-05
-3.42e-05
2
-0.000198
-0.0001979
-0.000198
-0.0001979
0
0
262
0.0002884
0.0002883
0.0002884
0.0002884
0
4.88e-05
4.89e-05
4.89e-05
1
4.88e-05
4.89e-05
4.89e-05
1
5.37e-05
5.38e-05
5.38e-05
0
5.37e-05
5.62e-05
5.62e-05
0
5.63e-05
5.62e-05
5.62e-05
3
5.86e-05
5.87e-05
5.86e-05
5.87e-05
6.35e-05
6.36e-05
6.35e-05
6.35e-05
0
6.11e-05
6.11e-05
2
6.6e-05
6.6e-05
2
6.35e-05
6.35e-05
0
6.36e-05
6.35e-05
6.6e-05
6.6e-05
1
6.59e-05
6.6e-05
6.6e-05
3
6.59e-05
6.6e-05
6.6e-05
2
6.59e-05
6.6e-05
6.6e-05
3
6.35e-05
6.35e-05
0
6.36e-05
6.35e-05
6.11e-05
6.11e-05
2
5.86e-05
5.87e-05
5.86e-05
5.87e-05
5.62e-05
5.62e-05
2
5.13e-05
5.14e-05
5.13e-05
5.13e-05
0
4.89e-05
4.89e-05
0
4.88e-05
4.89e-05
4.64e-05
4.65e-05
4.64e-05
4.64e-05
0
3.91e-05
3.91e-05
2
3.18e-05
3.18e-05
0
3.17e-05
3.18e-05
2.93e-05
2.94e-05
2.93e-05
2.93e-05
0
1.96e-05
1.95e-05
1.96e-05
1.95e-05
1.22e-05
1.23e-05
1.22e-05
1.22e-05
0
4.9e-06
4.9e-06
1
4.8e-06
-2.4e-06
-2.4e-06
0
-2.5e-06
-2.4e-06
-1.22e-05
-1.23e-05
-1.22e-05
-1.22e-05
0
-2.44e-05
-2.45e-05
-2.44e-05
-2.45e-05
-3.17e-05
-3.18e-05
-3.18e-05
0
-3.17e-05
-4.4e-05
-4.4e-05
2
-5.38e-05
-5.37e-05
-5.38e-05
-5.37e-05
-6.85e-05
-6.84e-05
-6.84e-05
1
-7.82e-05
-7.82e-05
0
-7.83e-05
-7.82e-05
-9.04e-05
-9.04e-05
2
-0.0001051
-0.0001051
2
-0.0001173
-0.0001173
2
-0.0001319
-0.000132
-0.000132
0
-0.0001319
-0.0001467
-0.0001466
-0.0001466
1
-0.0001613
-0.0001613
2
-0.0001735
-0.0001735
2
-0.0001907
-0.0001906
-0.0001906
1
-0.0002028
-0.0002029
-0.0002028
-0.0002028
0
5.37e-05
5.38e-05
5.37e-05
5.38e-05
0.0002322
0.0002321
0.0002322
0.0002322
0
0.0002492
0.0002493
0.0002493
0
0.0002492
0.0002615
0.0002615
2
0.0002786
0.0002785
0.0002786
0.0002786
0
0.0002908
0.0002909
0.0002908
0.0002908
0
0.0003055
0.0003054
0.0003055
0.0003055
0
0.0003177
0.0003177
1
0.0003176
0.0003324
0.0003324
0
0.0003323
0.0003324
0.0003445
0.0003446
0.0003446
1
0.0003568
0.0003568
0
0.0003567
0.0003568
0.0003691
0.000369
0.000369
1
0.0003788
0.0003788
1
0.0003787
0.0003886
0.0003886
0
0.0003885
0.0003886
0.0003983
0.0003984
0.0003983
0.0003983
0
0.0004082
0.0004081
0.0004081
1
0.000413
0.000413
2
0.0004228
0.0004228
0
0.0004227
0.0004228
0.0004277
0.0004276
0.0004277
0.0004277
0
0.0004325
0.0004326
0.0004325
0.0004326
0.0004374
0.0004374
0
0.0004375
0.0004374
0.0004375
0.0004374
0.0004374
0
0.0004375
0.0004423
0.0004423
0
0.0004424
0.0004423
0.0004423
1
0.0004424
0.0004423
0.0004399
0.0004399
0
0.0004398
0.0004399
0.0004399
3
0.0004374
0.0004374
0
0.0004375
0.0004374
0.0004326
0.0004325
0.0004326
0.0004325
0.0004277
0.0004276
0.0004277
0.0004277
0
0.0004203
0.0004203
0
0.0004204
0.0004203
0.000413
0.000413
2
0.0004032
0.0004033
0.0004032
0.0004032
0
0.0003935
0.0003934
0.0003935
0.0003934
0.0003837
0.0003837
0
0.0003836
0.0003837
0.0003715
0.0003714
0.0003715
0.0003714
0.0003568
0.0003568
2
0.0003421
0.0003422
0.0003421
0.0003421
0
0.0003275
0.0003275
0
0.0003274
0.0003275
0.0003104
0.0003103
0.0003104
0.0003104
0
0.0002932
0.0002933
0.0002932
0.0002933
0.0002737
0.0002737
2
0.0002566
0.0002566
2
0.0002346
0.0002346
2
0.0002126
0.0002126
2
0.0001931
0.0001931
0
0.000193
0.0001931
0.0001686
0.0001686
0
0.0001687
0.0001686
0.0001466
0.0001466
0
0.0001467
0.0001466
0.0001246
0.0001246
0
0.0001247
0.0001246
9.78e-05
9.77e-05
9.78e-05
9.77e-05
7.58e-05
7.57e-05
7.58e-05
7.58e-05
0
5.13e-05
5.13e-05
2
2.69e-05
2.69e-05
2
2.4e-06
2.4e-06
0
2.5e-06
2.4e-06
-2.44e-05
-2.44e-05
0
-2.45e-05
-2.44e-05
-4.89e-05
-4.89e-05
0
-4.88e-05
-4.89e-05
-7.09e-05
-7.09e-05
0
-7.08e-05
-7.09e-05
-9.78e-05
-9.77e-05
-9.78e-05
-9.77e-05
-0.0001222
-0.0001222
2
-0.0001441
-0.0001442
-0.0001442
1
-0.0001686
-0.0001686
0
-0.0001687
-0.0001686
-0.000193
-0.0001931
-0.0001931
0
-0.000193
-0.0002151
-0.000215
-0.0002151
-0.000215
-0.0002346
-0.0002346
0
-0.0002347
-0.0002346
-0.0002566
-0.0002566
2
-0.0002785
-0.0002786
-0.0002786
1
-0.0002957
-0.0002957
2
-0.0003153
-0.0003152
-0.0003153
-0.0003152
-0.0003324
-0.0003323
-0.0003324
-0.0003323
-0.0003495
-0.0003495
0
-0.0003494
-0.0003495
-0.0003666
-0.0003665
-0.0003666
-0.0003666
0
-0.0003787
-0.0003788
-0.0003788
1
-0.0003935
-0.0003934
-0.0003935
-0.0003934
-0.0004057
-0.0004057
0
-0.0004056
-0.0004057
-0.0004179
-0.0004179
1
-0.0004178
-0.0004253
-0.0004252
-0.0004252
1
-0.000435
-0.000435
2
-0.0004423
-0.0004424
-0.0004423
-0.0004423
0
-0.0004497
-0.0004496
-0.0004497
-0.0004496
-0.0004546
-0.0004545
-0.0004546
-0.0004545
-0.000457
-0.000457
2
-0.0004594
-0.0004595
