# Pulseq sequence file
# Created by PyPulseq

[VERSION]
major 1
minor 4
revision 0

[DEFINITIONS]
AdcRasterTime 1e-07 
BlockDurationRaster 1e-05 
GradientRasterTime 1e-05 
RadiofrequencyRasterTime 1e-06 

# Format of blocks:
# NUM DUR RF  GX  GY  GZ  ADC  EXT
[BLOCKS]
   1 2535   1   0   0   1  0  0
   2  42   0   2   3   0  0  0
   3  76   0   4   0   0  1  0
   4  60   0   6   5   0  0  0
   5  76   0   4   0   0  1  0
   6  60   0   6   5   0  0  0
   7  76   0   4   0   0  1  0
   8  60   0   6   5   0  0  0
   9  76   0   4   0   0  1  0
  10  60   0   6   5   0  0  0
  11  76   0   4   0   0  1  0
  12  60   0   6   5   0  0  0
  13  76   0   4   0   0  1  0
  14  60   0   6   5   0  0  0
  15  76   0   4   0   0  1  0
  16  60   0   6   5   0  0  0
  17  76   0   4   0   0  1  0
  18  60   0   6   5   0  0  0
  19  76   0   4   0   0  1  0
  20  60   0   6   5   0  0  0
  21  76   0   4   0   0  1  0
  22  60   0   6   5   0  0  0
  23  76   0   4   0   0  1  0
  24  60   0   6   5   0  0  0
  25  76   0   4   0   0  1  0
  26  60   0   6   5   0  0  0
  27  76   0   4   0   0  1  0
  28  60   0   6   5   0  0  0
  29  76   0   4   0   0  1  0
  30  60   0   6   5   0  0  0
  31  76   0   4   0   0  1  0
  32  60   0   6   5   0  0  0
  33  76   0   4   0   0  1  0
  34  60   0   6   5   0  0  0
  35  76   0   4   0   0  1  0
  36  60   0   6   5   0  0  0
  37  76   0   4   0   0  1  0
  38  60   0   6   5   0  0  0
  39  76   0   4   0   0  1  0
  40  60   0   6   5   0  0  0
  41  76   0   4   0   0  1  0
  42  60   0   6   5   0  0  0
  43  76   0   4   0   0  1  0
  44  60   0   6   5   0  0  0
  45  76   0   4   0   0  1  0
  46  60   0   6   5   0  0  0
  47  76   0   4   0   0  1  0
  48  60   0   6   5   0  0  0
  49  76   0   4   0   0  1  0
  50  60   0   7   7   7  0  0
  51 144159   0   0   0   0  0  0
  52 2535   2   0   0   1  0  0
  53  42   0   2   3   0  0  0
  54  76   0   4   0   0  1  0
  55  60   0   6   5   0  0  0
  56  76   0   4   0   0  1  0
  57  60   0   6   5   0  0  0
  58  76   0   4   0   0  1  0
  59  60   0   6   5   0  0  0
  60  76   0   4   0   0  1  0
  61  60   0   6   5   0  0  0
  62  76   0   4   0   0  1  0
  63  60   0   6   5   0  0  0
  64  76   0   4   0   0  1  0
  65  60   0   6   5   0  0  0
  66  76   0   4   0   0  1  0
  67  60   0   6   5   0  0  0
  68  76   0   4   0   0  1  0
  69  60   0   6   5   0  0  0
  70  76   0   4   0   0  1  0
  71  60   0   6   5   0  0  0
  72  76   0   4   0   0  1  0
  73  60   0   6   5   0  0  0
  74  76   0   4   0   0  1  0
  75  60   0   6   5   0  0  0
  76  76   0   4   0   0  1  0
  77  60   0   6   5   0  0  0
  78  76   0   4   0   0  1  0
  79  60   0   6   5   0  0  0
  80  76   0   4   0   0  1  0
  81  60   0   6   5   0  0  0
  82  76   0   4   0   0  1  0
  83  60   0   6   5   0  0  0
  84  76   0   4   0   0  1  0
  85  60   0   6   5   0  0  0
  86  76   0   4   0   0  1  0
  87  60   0   6   5   0  0  0
  88  76   0   4   0   0  1  0
  89  60   0   6   5   0  0  0
  90  76   0   4   0   0  1  0
  91  60   0   6   5   0  0  0
  92  76   0   4   0   0  1  0
  93  60   0   6   5   0  0  0
  94  76   0   4   0   0  1  0
  95  60   0   6   5   0  0  0
  96  76   0   4   0   0  1  0
  97  60   0   6   5   0  0  0
  98  76   0   4   0   0  1  0
  99  60   0   6   5   0  0  0
 100  76   0   4   0   0  1  0
 101  60   0   7   7   7  0  0
 102 144159   0   0   0   0  0  0
 103 2535   3   0   0   1  0  0
 104  42   0   2   3   0  0  0
 105  76   0   4   0   0  1  0
 106  60   0   6   5   0  0  0
 107  76   0   4   0   0  1  0
 108  60   0   6   5   0  0  0
 109  76   0   4   0   0  1  0
 110  60   0   6   5   0  0  0
 111  76   0   4   0   0  1  0
 112  60   0   6   5   0  0  0
 113  76   0   4   0   0  1  0
 114  60   0   6   5   0  0  0
 115  76   0   4   0   0  1  0
 116  60   0   6   5   0  0  0
 117  76   0   4   0   0  1  0
 118  60   0   6   5   0  0  0
 119  76   0   4   0   0  1  0
 120  60   0   6   5   0  0  0
 121  76   0   4   0   0  1  0
 122  60   0   6   5   0  0  0
 123  76   0   4   0   0  1  0
 124  60   0   6   5   0  0  0
 125  76   0   4   0   0  1  0
 126  60   0   6   5   0  0  0
 127  76   0   4   0   0  1  0
 128  60   0   6   5   0  0  0
 129  76   0   4   0   0  1  0
 130  60   0   6   5   0  0  0
 131  76   0   4   0   0  1  0
 132  60   0   6   5   0  0  0
 133  76   0   4   0   0  1  0
 134  60   0   6   5   0  0  0
 135  76   0   4   0   0  1  0
 136  60   0   6   5   0  0  0
 137  76   0   4   0   0  1  0
 138  60   0   6   5   0  0  0
 139  76   0   4   0   0  1  0
 140  60   0   6   5   0  0  0
 141  76   0   4   0   0  1  0
 142  60   0   6   5   0  0  0
 143  76   0   4   0   0  1  0
 144  60   0   6   5   0  0  0
 145  76   0   4   0   0  1  0
 146  60   0   6   5   0  0  0
 147  76   0   4   0   0  1  0
 148  60   0   6   5   0  0  0
 149  76   0   4   0   0  1  0
 150  60   0   6   5   0  0  0
 151  76   0   4   0   0  1  0
 152  60   0   7   7   7  0  0
 153 144159   0   0   0   0  0  0
 154 2535   4   0   0   1  0  0
 155  42   0   2   3   0  0  0
 156  76   0   4   0   0  1  0
 157  60   0   6   5   0  0  0
 158  76   0   4   0   0  1  0
 159  60   0   6   5   0  0  0
 160  76   0   4   0   0  1  0
 161  60   0   6   5   0  0  0
 162  76   0   4   0   0  1  0
 163  60   0   6   5   0  0  0
 164  76   0   4   0   0  1  0
 165  60   0   6   5   0  0  0
 166  76   0   4   0   0  1  0
 167  60   0   6   5   0  0  0
 168  76   0   4   0   0  1  0
 169  60   0   6   5   0  0  0
 170  76   0   4   0   0  1  0
 171  60   0   6   5   0  0  0
 172  76   0   4   0   0  1  0
 173  60   0   6   5   0  0  0
 174  76   0   4   0   0  1  0
 175  60   0   6   5   0  0  0
 176  76   0   4   0   0  1  0
 177  60   0   6   5   0  0  0
 178  76   0   4   0   0  1  0
 179  60   0   6   5   0  0  0
 180  76   0   4   0   0  1  0
 181  60   0   6   5   0  0  0
 182  76   0   4   0   0  1  0
 183  60   0   6   5   0  0  0
 184  76   0   4   0   0  1  0
 185  60   0   6   5   0  0  0
 186  76   0   4   0   0  1  0
 187  60   0   6   5   0  0  0
 188  76   0   4   0   0  1  0
 189  60   0   6   5   0  0  0
 190  76   0   4   0   0  1  0
 191  60   0   6   5   0  0  0
 192  76   0   4   0   0  1  0
 193  60   0   6   5   0  0  0
 194  76   0   4   0   0  1  0
 195  60   0   6   5   0  0  0
 196  76   0   4   0   0  1  0
 197  60   0   6   5   0  0  0
 198  76   0   4   0   0  1  0
 199  60   0   6   5   0  0  0
 200  76   0   4   0   0  1  0
 201  60   0   6   5   0  0  0
 202  76   0   4   0   0  1  0
 203  60   0   7   7   7  0  0
 204 144159   0   0   0   0  0  0
 205 2535   5   0   0   1  0  0
 206  42   0   2   3   0  0  0
 207  76   0   4   0   0  1  0
 208  60   0   6   5   0  0  0
 209  76   0   4   0   0  1  0
 210  60   0   6   5   0  0  0
 211  76   0   4   0   0  1  0
 212  60   0   6   5   0  0  0
 213  76   0   4   0   0  1  0
 214  60   0   6   5   0  0  0
 215  76   0   4   0   0  1  0
 216  60   0   6   5   0  0  0
 217  76   0   4   0   0  1  0
 218  60   0   6   5   0  0  0
 219  76   0   4   0   0  1  0
 220  60   0   6   5   0  0  0
 221  76   0   4   0   0  1  0
 222  60   0   6   5   0  0  0
 223  76   0   4   0   0  1  0
 224  60   0   6   5   0  0  0
 225  76   0   4   0   0  1  0
 226  60   0   6   5   0  0  0
 227  76   0   4   0   0  1  0
 228  60   0   6   5   0  0  0
 229  76   0   4   0   0  1  0
 230  60   0   6   5   0  0  0
 231  76   0   4   0   0  1  0
 232  60   0   6   5   0  0  0
 233  76   0   4   0   0  1  0
 234  60   0   6   5   0  0  0
 235  76   0   4   0   0  1  0
 236  60   0   6   5   0  0  0
 237  76   0   4   0   0  1  0
 238  60   0   6   5   0  0  0
 239  76   0   4   0   0  1  0
 240  60   0   6   5   0  0  0
 241  76   0   4   0   0  1  0
 242  60   0   6   5   0  0  0
 243  76   0   4   0   0  1  0
 244  60   0   6   5   0  0  0
 245  76   0   4   0   0  1  0
 246  60   0   6   5   0  0  0
 247  76   0   4   0   0  1  0
 248  60   0   6   5   0  0  0
 249  76   0   4   0   0  1  0
 250  60   0   6   5   0  0  0
 251  76   0   4   0   0  1  0
 252  60   0   6   5   0  0  0
 253  76   0   4   0   0  1  0
 254  60   0   7   7   7  0  0
 255 144159   0   0   0   0  0  0
 256 2535   6   0   0   1  0  0
 257  42   0   2   3   0  0  0
 258  76   0   4   0   0  1  0
 259  60   0   6   5   0  0  0
 260  76   0   4   0   0  1  0
 261  60   0   6   5   0  0  0
 262  76   0   4   0   0  1  0
 263  60   0   6   5   0  0  0
 264  76   0   4   0   0  1  0
 265  60   0   6   5   0  0  0
 266  76   0   4   0   0  1  0
 267  60   0   6   5   0  0  0
 268  76   0   4   0   0  1  0
 269  60   0   6   5   0  0  0
 270  76   0   4   0   0  1  0
 271  60   0   6   5   0  0  0
 272  76   0   4   0   0  1  0
 273  60   0   6   5   0  0  0
 274  76   0   4   0   0  1  0
 275  60   0   6   5   0  0  0
 276  76   0   4   0   0  1  0
 277  60   0   6   5   0  0  0
 278  76   0   4   0   0  1  0
 279  60   0   6   5   0  0  0
 280  76   0   4   0   0  1  0
 281  60   0   6   5   0  0  0
 282  76   0   4   0   0  1  0
 283  60   0   6   5   0  0  0
 284  76   0   4   0   0  1  0
 285  60   0   6   5   0  0  0
 286  76   0   4   0   0  1  0
 287  60   0   6   5   0  0  0
 288  76   0   4   0   0  1  0
 289  60   0   6   5   0  0  0
 290  76   0   4   0   0  1  0
 291  60   0   6   5   0  0  0
 292  76   0   4   0   0  1  0
 293  60   0   6   5   0  0  0
 294  76   0   4   0   0  1  0
 295  60   0   6   5   0  0  0
 296  76   0   4   0   0  1  0
 297  60   0   6   5   0  0  0
 298  76   0   4   0   0  1  0
 299  60   0   6   5   0  0  0
 300  76   0   4   0   0  1  0
 301  60   0   6   5   0  0  0
 302  76   0   4   0   0  1  0
 303  60   0   6   5   0  0  0
 304  76   0   4   0   0  1  0
 305  60   0   7   7   7  0  0
 306 144159   0   0   0   0  0  0
 307 2535   7   0   0   1  0  0
 308  42   0   2   3   0  0  0
 309  76   0   4   0   0  1  0
 310  60   0   6   5   0  0  0
 311  76   0   4   0   0  1  0
 312  60   0   6   5   0  0  0
 313  76   0   4   0   0  1  0
[RF]
1      187.504 2 3 0 100 0 0
2      187.504 2 4 0 100 0 0
3      187.504 2 5 0 100 0 0
4      187.504 2 6 0 100 0 0
5      187.504 2 7 0 100 0 0
6      187.504 2 8 0 100 0 0
7      187.504 2 9 0 100 0 0
8      187.504 2 10 0 100 0 0
9      187.504 2 11 0 100 0 0
10      187.504 2 12 0 100 0 0
11      187.504 2 13 0 100 0 0
12      187.504 2 14 0 100 0 0
13      187.504 2 3 0 100 -365 0
14      187.504 2 4 0 100 -365 0
15      187.504 2 5 0 100 -365 0
16      187.504 2 6 0 100 -365 0
17      187.504 2 7 0 100 -365 0
18      187.504 2 8 0 100 -365 0
19      187.504 2 9 0 100 -365 0
20      187.504 2 10 0 100 -365 0
21      187.504 2 11 0 100 -365 0
22      187.504 2 12 0 100 -365 0
23      187.504 2 13 0 100 -365 0
24      187.504 2 14 0 100 -365 0

# Format of arbitrary gradients:
#   time_shape_id of 0 means default timing (stepping with grad_raster starting at 1/2 of grad_raster)
# id amplitude amp_shape_id time_shape_id delay
# ..      Hz/m       ..         ..          us
[GRADIENTS]
1       284631 1 0 100

# Format of trapezoid gradients:
# id amplitude rise flat fall delay
# ..      Hz/m   us   us   us    us
[TRAP]
 2      -307540 210    0 210   0
 3      -266204 180    0 180   0
 4       208333 140  480 140   0
 5      69444.4  60    0  60   0
 6      -430556 300    0 300   0
 7       430556 300    0 300   0

# Format of ADC events:
# id num dwell delay freq phase
# ..  ..    ns    us   Hz   rad
[ADC]
1 24 20000 140 0 0
2 24 20000 140 -365 0

# Sequence Shapes
[SHAPES]

shape_id 1
num_samples 2521
0
0.0159323405
0.0557631916
0.0955940123
0.135424863
0.175255715
0.215086535
0.254917386
0.294748238
0.334579058
0.374409909
0.414240761
0.454071596
0.493902432
0.533733283
0.573564135
0.613394955
0.653225806
0.693056658
0.732887478
0.772718329
0.812549181
0.852380016
0.892210852
0.932041704
0.971872555
0.987804865
0.987804865
0.987804865
0.987804865
0.987804865
0.987804865
0.987804865
0.987804865
0.963906384
0.924075533
0.884244682
0.844413862
0.80458301
0.764752159
0.724921323
0.685090487
0.645259636
0.605428785
0.565597964
0.525767113
0.485936262
0.446105441
0.40627459
0.366443739
0.326612903
0.286782067
0.246951216
0.207120365
0.167289544
0.127458693
0.087627842
0.0477970214
0.00796617023
-0.031746025
-0.0714285714
-0.111111118
-0.150793649
-0.19047618
-0.230158742
-0.269841273
-0.309523804
-0.349206336
-0.388888897
-0.428571429
-0.46825396
-0.507936522
-0.547619053
-0.587301584
-0.626984115
-0.666666677
-0.706349208
-0.746031739
-0.785714286
-0.825396832
-0.865079363
-0.904761895
-0.944444456
-0.984126988
-1
-1
-1
-1
-1
-1
-1
-0.984126988
-0.944444456
-0.904761895
-0.865079363
-0.825396832
-0.785714286
-0.746031739
-0.706349208
-0.666666677
-0.626984115
-0.587301584
-0.547619053
-0.507936522
-0.46825396
-0.428571429
-0.388888897
-0.349206336
-0.309523804
-0.269841273
-0.230158742
-0.19047618
-0.150793649
-0.111111118
-0.0714285714
-0.031746025
0.00796617023
0.0477970214
0.087627842
0.127458693
0.167289544
0.207120365
0.246951216
0.286782067
0.326612903
0.366443739
0.40627459
0.446105441
0.485936262
0.525767113
0.565597964
0.605428785
0.645259636
0.685090487
0.724921323
0.764752159
0.80458301
0.844413862
0.884244682
0.924075533
0.963906384
0.987804865
0.987804865
0.987804865
0.987804865
0.987804865
0.987804865
0.987804865
0.987804865
0.971872555
0.932041704
0.892210852
0.852380016
0.812549181
0.772718329
0.732887478
0.693056658
0.653225806
0.613394955
0.573564135
0.533733283
0.493902432
0.454071596
0.414240761
0.374409909
0.334579058
0.294748238
0.254917386
0.215086535
0.175255715
0.135424863
0.0955940123
0.0557631916
0.0159323405
-0.0238095187
-0.0634920499
-0.103174612
-0.142857143
-0.182539674
-0.222222236
-0.261904767
-0.301587298
-0.341269829
-0.380952391
-0.420634922
-0.460317454
-0.5
-0.539682546
-0.579365078
-0.619047609
-0.658730171
-0.698412702
-0.738095233
-0.777777764
-0.817460326
-0.857142857
-0.896825388
-0.93650795
-0.976190481
-1
-1
-1
-1
-1
-1
-1
-0.992063494
-0.952380963
-0.912698401
-0.87301587
-0.833333338
-0.793650807
-0.753968245
-0.714285714
-0.674603183
-0.634920621
-0.59523809
-0.555555559
-0.515873028
-0.476190466
-0.436507935
-0.396825404
-0.357142857
-0.317460311
-0.277777779
-0.238095248
-0.198412687
-0.158730155
-0.119047624
-0.0793650929
-0.0396825312
-0
0.0398308512
0.0796616718
0.119492523
0.159323374
0.19915421
0.238985046
0.278815897
0.318646748
0.358477569
0.39830842
0.438139271
0.477970092
0.517800943
0.557631794
0.597462615
0.637293466
0.677124317
0.716955168
0.756785989
0.79661684
0.836447691
0.876278512
0.916109363
0.955940214
0.987804865
0.987804865
0.987804865
0.987804865
0.987804865
0.987804865
0.987804865
0.987804865
0.97983871
0.940007874
0.900177023
0.860346171
0.820515351
0.7806845
0.740853648
0.701022828
0.661191977
0.621361126
0.58153029
0.541699454
0.501868603
0.462037751
0.422206931
0.38237608
0.342545228
0.302714408
0.262883557
0.223052705
0.183221885
0.143391034
0.103560183
0.0637293619
0.0238985107
-0.0158730125
-0.0555555437
-0.0952381054
-0.134920637
-0.174603168
-0.214285714
-0.253968261
-0.293650792
-0.333333323
-0.373015885
-0.412698416
-0.452380947
-0.492063478
-0.53174604
-0.571428571
-0.611111103
-0.650793664
-0.690476196
-0.730158727
-0.769841258
-0.80952382
-0.849206351
-0.888888882
-0.928571429
-0.968253975
-1
-1
-1
-1
-1
-1
-1
-1
-0.960317469
-0.920634907
-0.880952376
-0.841269845
-0.801587313
-0.761904752
-0.722222221
-0.682539689
-0.642857143
-0.603174596
-0.563492065
-0.523809534
-0.484126972
-0.444444441
-0.40476191
-0.365079379
-0.325396817
-0.285714286
-0.246031755
-0.206349193
-0.166666662
-0.12698413
-0.0873015992
-0.0476190374
-0.00793650624
0.0318646809
0.0716955168
0.111526353
0.151357204
0.191188055
0.231018876
0.270849727
0.310680578
0.350511399
0.39034225
0.430173101
0.470003922
0.509834773
0.549665624
0.589496445
0.629327296
0.669158147
0.708988998
0.748819819
0.78865067
0.828481521
0.868312342
0.908143193
0.947974044
0.987804865
0.987804865
0.987804865
0.987804865
0.987804865
0.987804865
0.987804865
0.987804865
0.987804865
0.947974044
0.908143193
0.868312342
0.828481521
0.78865067
0.748819819
0.708988998
0.669158147
0.629327296
0.589496445
0.549665624
0.509834773
0.470003922
0.430173101
0.39034225
0.350511399
0.310680578
0.270849727
0.231018876
0.191188055
0.151357204
0.111526353
0.0716955168
0.0318646809
-0.00793650624
-0.0476190374
-0.0873015992
-0.12698413
-0.166666662
-0.206349193
-0.246031755
-0.285714286
-0.325396817
-0.365079379
-0.40476191
-0.444444441
-0.484126972
-0.523809534
-0.563492065
-0.603174596
-0.642857143
-0.682539689
-0.722222221
-0.761904752
-0.801587313
-0.841269845
-0.880952376
-0.920634907
-0.960317469
-1
-1
-1
-1
-1
-1
-1
-1
-0.968253975
-0.928571429
-0.888888882
-0.849206351
-0.80952382
-0.769841258
-0.730158727
-0.690476196
-0.650793664
-0.611111103
-0.571428571
-0.53174604
-0.492063478
-0.452380947
-0.412698416
-0.373015885
-0.333333323
-0.293650792
-0.253968261
-0.214285714
-0.174603168
-0.134920637
-0.0952381054
-0.0555555437
-0.0158730125
0.0238985107
0.0637293619
0.103560183
0.143391034
0.183221885
0.223052705
0.262883557
0.302714408
0.342545228
0.38237608
0.422206931
0.462037751
0.501868603
0.541699454
0.58153029
0.621361126
0.661191977
0.701022828
0.740853648
0.7806845
0.820515351
0.860346171
0.900177023
0.940007874
0.97983871
0.987804865
0.987804865
0.987804865
0.987804865
0.987804865
0.987804865
0.987804865
0.987804865
0.955940214
0.916109363
0.876278512
0.836447691
0.79661684
0.756785989
0.716955168
0.677124317
0.637293466
0.597462615
0.557631794
0.517800943
0.477970092
0.438139271
0.39830842
0.358477569
0.318646748
0.278815897
0.238985046
0.19915421
0.159323374
0.119492523
0.0796616718
0.0398308512
0
-0.0396825312
-0.0793650929
-0.119047624
-0.158730155
-0.198412687
-0.238095248
-0.277777779
-0.317460311
-0.357142857
-0.396825404
-0.436507935
-0.476190466
-0.515873028
-0.555555559
-0.59523809
-0.634920621
-0.674603183
-0.714285714
-0.753968245
-0.793650807
-0.833333338
-0.87301587
-0.912698401
-0.952380963
-0.992063494
-1
-1
-1
-1
-1
-1
-1
-0.976190481
-0.93650795
-0.896825388
-0.857142857
-0.817460326
-0.777777764
-0.738095233
-0.698412702
-0.658730171
-0.619047609
-0.579365078
-0.539682546
-0.5
-0.460317454
-0.420634922
-0.380952391
-0.341269829
-0.301587298
-0.261904767
-0.222222236
-0.182539674
-0.142857143
-0.103174612
-0.0634920499
-0.0238095187
0.0159323405
0.0557631916
0.0955940123
0.135424863
0.175255715
0.215086535
0.254917386
0.294748238
0.334579058
0.374409909
0.414240761
0.454071596
0.493902432
0.533733283
0.573564135
0.613394955
0.653225806
0.693056658
0.732887478
0.772718329
0.812549181
0.852380016
0.892210852
0.932041704
0.971872555
0.987804865
0.987804865
0.987804865
0.987804865
0.987804865
0.987804865
0.987804865
0.987804865
0.963906384
0.924075533
0.884244682
0.844413862
0.80458301
0.764752159
0.724921323
0.685090487
0.645259636
0.605428785
0.565597964
0.525767113
0.485936262
0.446105441
0.40627459
0.366443739
0.326612903
0.286782067
0.246951216
0.207120365
0.167289544
0.127458693
0.087627842
0.0477970214
0.00796617023
-0.031746025
-0.0714285714
-0.111111118
-0.150793649
-0.19047618
-0.230158742
-0.269841273
-0.309523804
-0.349206336
-0.388888897
-0.428571429
-0.46825396
-0.507936522
-0.547619053
-0.587301584
-0.626984115
-0.666666677
-0.706349208
-0.746031739
-0.785714286
-0.825396832
-0.865079363
-0.904761895
-0.944444456
-0.984126988
-1
-1
-1
-1
-1
-1
-1
-0.984126988
-0.944444456
-0.904761895
-0.865079363
-0.825396832
-0.785714286
-0.746031739
-0.706349208
-0.666666677
-0.626984115
-0.587301584
-0.547619053
-0.507936522
-0.46825396
-0.428571429
-0.388888897
-0.349206336
-0.309523804
-0.269841273
-0.230158742
-0.19047618
-0.150793649
-0.111111118
-0.0714285714
-0.031746025
0.00796617023
0.0477970214
0.087627842
0.127458693
0.167289544
0.207120365
0.246951216
0.286782067
0.326612903
0.366443739
0.40627459
0.446105441
0.485936262
0.525767113
0.565597964
0.605428785
0.645259636
0.685090487
0.724921323
0.764752159
0.80458301
0.844413862
0.884244682
0.924075533
0.963906384
0.987804865
0.987804865
0.987804865
0.987804865
0.987804865
0.987804865
0.987804865
0.987804865
0.971872555
0.932041704
0.892210852
0.852380016
0.812549181
0.772718329
0.732887478
0.693056658
0.653225806
0.613394955
0.573564135
0.533733283
0.493902432
0.454071596
0.414240761
0.374409909
0.334579058
0.294748238
0.254917386
0.215086535
0.175255715
0.135424863
0.0955940123
0.0557631916
0.0159323405
-0.0238095187
-0.0634920499
-0.103174612
-0.142857143
-0.182539674
-0.222222236
-0.261904767
-0.301587298
-0.341269829
-0.380952391
-0.420634922
-0.460317454
-0.5
-0.539682546
-0.579365078
-0.619047609
-0.658730171
-0.698412702
-0.738095233
-0.777777764
-0.817460326
-0.857142857
-0.896825388
-0.93650795
-0.976190481
-1
-1
-1
-1
-1
-1
-1
-0.992063494
-0.952380963
-0.912698401
-0.87301587
-0.833333338
-0.793650807
-0.753968245
-0.714285714
-0.674603183
-0.634920621
-0.59523809
-0.555555559
-0.515873028
-0.476190466
-0.436507935
-0.396825404
-0.357142857
-0.317460311
-0.277777779
-0.238095248
-0.198412687
-0.158730155
-0.119047624
-0.0793650929
-0.0396825312
-0
0.0398308512
0.0796616718
0.119492523
0.159323374
0.19915421
0.238985046
0.278815897
0.318646748
0.358477569
0.39830842
0.438139271
0.477970092
0.517800943
0.557631794
0.597462615
0.637293466
0.677124317
0.716955168
0.756785989
0.79661684
0.836447691
0.876278512
0.916109363
0.955940214
0.987804865
0.987804865
0.987804865
0.987804865
0.987804865
0.987804865
0.987804865
0.987804865
0.97983871
0.940007874
0.900177023
0.860346171
0.820515351
0.7806845
0.740853648
0.701022828
0.661191977
0.621361126
0.58153029
0.541699454
0.501868603
0.462037751
0.422206931
0.38237608
0.342545228
0.302714408
0.262883557
0.223052705
0.183221885
0.143391034
0.103560183
0.0637293619
0.0238985107
-0.0158730125
-0.0555555437
-0.0952381054
-0.134920637
-0.174603168
-0.214285714
-0.253968261
-0.293650792
-0.333333323
-0.373015885
-0.412698416
-0.452380947
-0.492063478
-0.53174604
-0.571428571
-0.611111103
-0.650793664
-0.690476196
-0.730158727
-0.769841258
-0.80952382
-0.849206351
-0.888888882
-0.928571429
-0.968253975
-1
-1
-1
-1
-1
-1
-1
-1
-0.960317469
-0.920634907
-0.880952376
-0.841269845
-0.801587313
-0.761904752
-0.722222221
-0.682539689
-0.642857143
-0.603174596
-0.563492065
-0.523809534
-0.484126972
-0.444444441
-0.40476191
-0.365079379
-0.325396817
-0.285714286
-0.246031755
-0.206349193
-0.166666662
-0.12698413
-0.0873015992
-0.0476190374
-0.00793650624
0.0318646809
0.0716955168
0.111526353
0.151357204
0.191188055
0.231018876
0.270849727
0.310680578
0.350511399
0.39034225
0.430173101
0.470003922
0.509834773
0.549665624
0.589496445
0.629327296
0.669158147
0.708988998
0.748819819
0.78865067
0.828481521
0.868312342
0.908143193
0.947974044
0.987804865
0.987804865
0.987804865
0.987804865
0.987804865
0.987804865
0.987804865
0.987804865
0.987804865
0.947974044
0.908143193
0.868312342
0.828481521
0.78865067
0.748819819
0.708988998
0.669158147
0.629327296
0.589496445
0.549665624
0.509834773
0.470003922
0.430173101
0.39034225
0.350511399
0.310680578
0.270849727
0.231018876
0.191188055
0.151357204
0.111526353
0.0716955168
0.0318646809
-0.00793650624
-0.0476190374
-0.0873015992
-0.12698413
-0.166666662
-0.206349193
-0.246031755
-0.285714286
-0.325396817
-0.365079379
-0.40476191
-0.444444441
-0.484126972
-0.523809534
-0.563492065
-0.603174596
-0.642857143
-0.682539689
-0.722222221
-0.761904752
-0.801587313
-0.841269845
-0.880952376
-0.920634907
-0.960317469
-1
-1
-1
-1
-1
-1
-1
-1
-0.968253975
-0.928571429
-0.888888882
-0.849206351
-0.80952382
-0.769841258
-0.730158727
-0.690476196
-0.650793664
-0.611111103
-0.571428571
-0.53174604
-0.492063478
-0.452380947
-0.412698416
-0.373015885
-0.333333323
-0.293650792
-0.253968261
-0.214285714
-0.174603168
-0.134920637
-0.0952381054
-0.0555555437
-0.0158730125
0.0238985107
0.0637293619
0.103560183
0.143391034
0.183221885
0.223052705
0.262883557
0.302714408
0.342545228
0.38237608
0.422206931
0.462037751
0.501868603
0.541699454
0.58153029
0.621361126
0.661191977
0.701022828
0.740853648
0.7806845
0.820515351
0.860346171
0.900177023
0.940007874
0.97983871
0.987804865
0.987804865
0.987804865
0.987804865
0.987804865
0.987804865
0.987804865
0.987804865
0.955940214
0.916109363
0.876278512
0.836447691
0.79661684
0.756785989
0.716955168
0.677124317
0.637293466
0.597462615
0.557631794
0.517800943
0.477970092
0.438139271
0.39830842
0.358477569
0.318646748
0.278815897
0.238985046
0.19915421
0.159323374
0.119492523
0.0796616718
0.0398308512
-6.88382185e-15
-0.0396825312
-0.0793650929
-0.119047624
-0.158730155
-0.198412687
-0.238095248
-0.277777779
-0.317460311
-0.357142857
-0.396825404
-0.436507935
-0.476190466
-0.515873028
-0.555555559
-0.59523809
-0.634920621
-0.674603183
-0.714285714
-0.753968245
-0.793650807
-0.833333338
-0.87301587
-0.912698401
-0.952380963
-0.992063494
-1
-1
-1
-1
-1
-1
-1
-0.976190481
-0.93650795
-0.896825388
-0.857142857
-0.817460326
-0.777777764
-0.738095233
-0.698412702
-0.658730171
-0.619047609
-0.579365078
-0.539682546
-0.5
-0.460317454
-0.420634922
-0.380952391
-0.341269829
-0.301587298
-0.261904767
-0.222222236
-0.182539674
-0.142857143
-0.103174612
-0.0634920499
-0.0238095187
0.0159323405
0.0557631916
0.0955940123
0.135424863
0.175255715
0.215086535
0.254917386
0.294748238
0.334579058
0.374409909
0.414240761
0.454071596
0.493902432
0.533733283
0.573564135
0.613394955
0.653225806
0.693056658
0.732887478
0.772718329
0.812549181
0.852380016
0.892210852
0.932041704
0.971872555
0.987804865
0.987804865
0.987804865
0.987804865
0.987804865
0.987804865
0.987804865
0.987804865
0.963906384
0.924075533
0.884244682
0.844413862
0.80458301
0.764752159
0.724921323
0.685090487
0.645259636
0.605428785
0.565597964
0.525767113
0.485936262
0.446105441
0.40627459
0.366443739
0.326612903
0.286782067
0.246951216
0.207120365
0.167289544
0.127458693
0.087627842
0.0477970214
0.00796617023
-0.031746025
-0.0714285714
-0.111111118
-0.150793649
-0.19047618
-0.230158742
-0.269841273
-0.309523804
-0.349206336
-0.388888897
-0.428571429
-0.46825396
-0.507936522
-0.547619053
-0.587301584
-0.626984115
-0.666666677
-0.706349208
-0.746031739
-0.785714286
-0.825396832
-0.865079363
-0.904761895
-0.944444456
-0.984126988
-1
-1
-1
-1
-1
-1
-1
-0.984126988
-0.944444456
-0.904761895
-0.865079363
-0.825396832
-0.785714286
-0.746031739
-0.706349208
-0.666666677
-0.626984115
-0.587301584
-0.547619053
-0.507936522
-0.46825396
-0.428571429
-0.388888897
-0.349206336
-0.309523804
-0.269841273
-0.230158742
-0.19047618
-0.150793649
-0.111111118
-0.0714285714
-0.031746025
0.00796617023
0.0477970214
0.087627842
0.127458693
0.167289544
0.207120365
0.246951216
0.286782067
0.326612903
0.366443739
0.40627459
0.446105441
0.485936262
0.525767113
0.565597964
0.605428785
0.645259636
0.685090487
0.724921323
0.764752159
0.80458301
0.844413862
0.884244682
0.924075533
0.963906384
0.987804865
0.987804865
0.987804865
0.987804865
0.987804865
0.987804865
0.987804865
0.987804865
0.971872555
0.932041704
0.892210852
0.852380016
0.812549181
0.772718329
0.732887478
0.693056658
0.653225806
0.613394955
0.573564135
0.533733283
0.493902432
0.454071596
0.414240761
0.374409909
0.334579058
0.294748238
0.254917386
0.215086535
0.175255715
0.135424863
0.0955940123
0.0557631916
0.0159323405
-0.0238095187
-0.0634920499
-0.103174612
-0.142857143
-0.182539674
-0.222222236
-0.261904767
-0.301587298
-0.341269829
-0.380952391
-0.420634922
-0.460317454
-0.5
-0.539682546
-0.579365078
-0.619047609
-0.658730171
-0.698412702
-0.738095233
-0.777777764
-0.817460326
-0.857142857
-0.896825388
-0.93650795
-0.976190481
-1
-1
-1
-1
-1
-1
-1
-0.992063494
-0.952380963
-0.912698401
-0.87301587
-0.833333338
-0.793650807
-0.753968245
-0.714285714
-0.674603183
-0.634920621
-0.59523809
-0.555555559
-0.515873028
-0.476190466
-0.436507935
-0.396825404
-0.357142857
-0.317460311
-0.277777779
-0.238095248
-0.198412687
-0.158730155
-0.119047624
-0.0793650929
-0.0396825312
-0
0.0398308512
0.0796616718
0.119492523
0.159323374
0.19915421
0.238985046
0.278815897
0.318646748
0.358477569
0.39830842
0.438139271
0.477970092
0.517800943
0.557631794
0.597462615
0.637293466
0.677124317
0.716955168
0.756785989
0.79661684
0.836447691
0.876278512
0.916109363
0.955940214
0.987804865
0.987804865
0.987804865
0.987804865
0.987804865
0.987804865
0.987804865
0.987804865
0.97983871
0.940007874
0.900177023
0.860346171
0.820515351
0.7806845
0.740853648
0.701022828
0.661191977
0.621361126
0.58153029
0.541699454
0.501868603
0.462037751
0.422206931
0.38237608
0.342545228
0.302714408
0.262883557
0.223052705
0.183221885
0.143391034
0.103560183
0.0637293619
0.0238985107
-0.0158730125
-0.0555555437
-0.0952381054
-0.134920637
-0.174603168
-0.214285714
-0.253968261
-0.293650792
-0.333333323
-0.373015885
-0.412698416
-0.452380947
-0.492063478
-0.53174604
-0.571428571
-0.611111103
-0.650793664
-0.690476196
-0.730158727
-0.769841258
-0.80952382
-0.849206351
-0.888888882
-0.928571429
-0.968253975
-1
-1
-1
-1
-1
-1
-1
-1
-0.960317469
-0.920634907
-0.880952376
-0.841269845
-0.801587313
-0.761904752
-0.722222221
-0.682539689
-0.642857143
-0.603174596
-0.563492065
-0.523809534
-0.484126972
-0.444444441
-0.40476191
-0.365079379
-0.325396817
-0.285714286
-0.246031755
-0.206349193
-0.166666662
-0.12698413
-0.0873015992
-0.0476190374
-0.00793650624
0.0318646809
0.0716955168
0.111526353
0.151357204
0.191188055
0.231018876
0.270849727
0.310680578
0.350511399
0.39034225
0.430173101
0.470003922
0.509834773
0.549665624
0.589496445
0.629327296
0.669158147
0.708988998
0.748819819
0.78865067
0.828481521
0.868312342
0.908143193
0.947974044
0.987804865
0.987804865
0.987804865
0.987804865
0.987804865
0.987804865
0.987804865
0.987804865
0.987804865
0.947974044
0.908143193
0.868312342
0.828481521
0.78865067
0.748819819
0.708988998
0.669158147
0.629327296
0.589496445
0.549665624
0.509834773
0.470003922
0.430173101
0.39034225
0.350511399
0.310680578
0.270849727
0.231018876
0.191188055
0.151357204
0.111526353
0.0716955168
0.0318646809
-0.00793650624
-0.0476190374
-0.0873015992
-0.12698413
-0.166666662
