# Pulseq sequence file
# Created by PyPulseq

[VERSION]
major 1
minor 4
revision 0

[DEFINITIONS]
AdcRasterTime 1e-07 
BlockDurationRaster 1e-05 
GradientRasterTime 1e-05 
RadiofrequencyRasterTime 1e-06 

# Format of blocks:
# NUM DUR RF  GX  GY  GZ  ADC  EXT
[BLOCKS]
   1 2102   1   0   0   1  0  0
   2  30   0   2   3   4  0  0
   3  52   0   5   6   0  1  0
   4  52   0   7   8   0  1  0
   5  52   0   5   8   0  1  0
   6  52   0   7   8   0  1  0
   7  52   0   5   8   0  1  0
   8  52   0   7   8   0  1  0
   9  52   0   5   8   0  1  0
  10  52   0   7   8   0  1  0
  11  52   0   5   8   0  1  0
  12  52   0   7   8   0  1  0
  13  52   0   5   8   0  1  0
  14  52   0   7   8   0  1  0
  15  52   0   5   8   0  1  0
  16  52   0   7   8   0  1  0
  17  52   0   5   8   0  1  0
  18  52   0   7   9   0  1  0
  19  52   0   5  10   0  1  0
  20  52   0   7  11   0  1  0
  21  52   0   5  11   0  1  0
  22  52   0   7  11   0  1  0
  23  52   0   5  11   0  1  0
  24  52   0   7  11   0  1  0
  25  52   0   5  11   0  1  0
  26  52   0   7  11   0  1  0
  27  52   0   5  11   0  1  0
  28  52   0   7  11   0  1  0
  29  52   0   5  11   0  1  0
  30  52   0   7  11   0  1  0
  31  52   0   5  11   0  1  0
  32  52   0   7  11   0  1  0
  33  52   0   5  11   0  1  0
  34  52   0   7  12   0  1  0
  35  52   0   5   6   0  1  0
  36  52   0   7   8   0  1  0
  37  52   0   5   8   0  1  0
  38  52   0   7   8   0  1  0
  39  52   0   5   8   0  1  0
  40  52   0   7   8   0  1  0
  41  52   0   5   8   0  1  0
  42  52   0   7   8   0  1  0
  43  52   0   5   8   0  1  0
  44  52   0   7   8   0  1  0
  45  52   0   5   8   0  1  0
  46  52   0   7   8   0  1  0
  47  52   0   5   8   0  1  0
  48  52   0   7   8   0  1  0
  49  52   0   5   8   0  1  0
  50  52   0   7   9   0  1  0
  51  42   0  13  14  15  0  0
  52 2102   1   0   0   1  0  0
  53  30   0   2   3  15  0  0
  54  52   0   5   6   0  1  0
  55  52   0   7   8   0  1  0
  56  52   0   5   8   0  1  0
  57  52   0   7   8   0  1  0
  58  52   0   5   8   0  1  0
  59  52   0   7   8   0  1  0
  60  52   0   5   8   0  1  0
  61  52   0   7   8   0  1  0
  62  52   0   5   8   0  1  0
  63  52   0   7   8   0  1  0
  64  52   0   5   8   0  1  0
  65  52   0   7   8   0  1  0
  66  52   0   5   8   0  1  0
  67  52   0   7   8   0  1  0
  68  52   0   5   8   0  1  0
  69  52   0   7   9   0  1  0
  70  52   0   5  10   0  1  0
  71  52   0   7  11   0  1  0
  72  52   0   5  11   0  1  0
  73  52   0   7  11   0  1  0
  74  52   0   5  11   0  1  0
  75  52   0   7  11   0  1  0
  76  52   0   5  11   0  1  0
  77  52   0   7  11   0  1  0
  78  52   0   5  11   0  1  0
  79  52   0   7  11   0  1  0
  80  52   0   5  11   0  1  0
  81  52   0   7  11   0  1  0
  82  52   0   5  11   0  1  0
  83  52   0   7  11   0  1  0
  84  52   0   5  11   0  1  0
  85  52   0   7  12   0  1  0
  86  52   0   5   6   0  1  0
  87  52   0   7   8   0  1  0
  88  52   0   5   8   0  1  0
  89  52   0   7   8   0  1  0
  90  52   0   5   8   0  1  0
  91  52   0   7   8   0  1  0
  92  52   0   5   8   0  1  0
  93  52   0   7   8   0  1  0
  94  52   0   5   8   0  1  0
  95  52   0   7   8   0  1  0
  96  52   0   5   8   0  1  0
  97  52   0   7   8   0  1  0
  98  52   0   5   8   0  1  0
  99  52   0   7   8   0  1  0
 100  52   0   5   8   0  1  0
 101  52   0   7   9   0  1  0
 102  42   0  13  14   4  0  0
 103 2102   1   0   0   1  0  0
 104  30   0   2   3  16  0  0
 105  52   0   5   6   0  1  0
 106  52   0   7   8   0  1  0
 107  52   0   5   8   0  1  0
 108  52   0   7   8   0  1  0
 109  52   0   5   8   0  1  0
 110  52   0   7   8   0  1  0
 111  52   0   5   8   0  1  0
 112  52   0   7   8   0  1  0
 113  52   0   5   8   0  1  0
 114  52   0   7   8   0  1  0
 115  52   0   5   8   0  1  0
 116  52   0   7   8   0  1  0
 117  52   0   5   8   0  1  0
 118  52   0   7   8   0  1  0
 119  52   0   5   8   0  1  0
 120  52   0   7   9   0  1  0
 121  52   0   5  10   0  1  0
 122  52   0   7  11   0  1  0
 123  52   0   5  11   0  1  0
 124  52   0   7  11   0  1  0
 125  52   0   5  11   0  1  0
 126  52   0   7  11   0  1  0
 127  52   0   5  11   0  1  0
 128  52   0   7  11   0  1  0
 129  52   0   5  11   0  1  0
 130  52   0   7  11   0  1  0
 131  52   0   5  11   0  1  0
 132  52   0   7  11   0  1  0
 133  52   0   5  11   0  1  0
 134  52   0   7  11   0  1  0
 135  52   0   5  11   0  1  0
 136  52   0   7  12   0  1  0
 137  52   0   5   6   0  1  0
 138  52   0   7   8   0  1  0
 139  52   0   5   8   0  1  0
 140  52   0   7   8   0  1  0
 141  52   0   5   8   0  1  0
 142  52   0   7   8   0  1  0
 143  52   0   5   8   0  1  0
 144  52   0   7   8   0  1  0
 145  52   0   5   8   0  1  0
 146  52   0   7   8   0  1  0
 147  52   0   5   8   0  1  0
 148  52   0   7   8   0  1  0
 149  52   0   5   8   0  1  0
 150  52   0   7   8   0  1  0
 151  52   0   5   8   0  1  0
 152  52   0   7   9   0  1  0
 153  42   0  13  14  17  0  0
 154 2102   1   0   0   1  0  0
 155  30   0   2   3  17  0  0
 156  52   0   5   6   0  1  0
 157  52   0   7   8   0  1  0
 158  52   0   5   8   0  1  0
 159  52   0   7   8   0  1  0
 160  52   0   5   8   0  1  0
 161  52   0   7   8   0  1  0
 162  52   0   5   8   0  1  0
 163  52   0   7   8   0  1  0
 164  52   0   5   8   0  1  0
 165  52   0   7   8   0  1  0
 166  52   0   5   8   0  1  0
 167  52   0   7   8   0  1  0
 168  52   0   5   8   0  1  0
 169  52   0   7   8   0  1  0
 170  52   0   5   8   0  1  0
 171  52   0   7   9   0  1  0
 172  52   0   5  10   0  1  0
 173  52   0   7  11   0  1  0
 174  52   0   5  11   0  1  0
 175  52   0   7  11   0  1  0
 176  52   0   5  11   0  1  0
 177  52   0   7  11   0  1  0
 178  52   0   5  11   0  1  0
 179  52   0   7  11   0  1  0
 180  52   0   5  11   0  1  0
 181  52   0   7  11   0  1  0
 182  52   0   5  11   0  1  0
 183  52   0   7  11   0  1  0
 184  52   0   5  11   0  1  0
 185  52   0   7  11   0  1  0
 186  52   0   5  11   0  1  0
 187  52   0   7  12   0  1  0
 188  52   0   5   6   0  1  0
 189  52   0   7   8   0  1  0
 190  52   0   5   8   0  1  0
 191  52   0   7   8   0  1  0
 192  52   0   5   8   0  1  0
 193  52   0   7   8   0  1  0
 194  52   0   5   8   0  1  0
 195  52   0   7   8   0  1  0
 196  52   0   5   8   0  1  0
 197  52   0   7   8   0  1  0
 198  52   0   5   8   0  1  0
 199  52   0   7   8   0  1  0
 200  52   0   5   8   0  1  0
 201  52   0   7   8   0  1  0
 202  52   0   5   8   0  1  0
 203  52   0   7   9   0  1  0
 204  42   0  13  14  16  0  0
 205 2102   1   0   0   1  0  0
 206  30   0   2   3  18  0  0
 207  52   0   5   6   0  1  0
 208  52   0   7   8   0  1  0
 209  52   0   5   8   0  1  0
 210  52   0   7   8   0  1  0
 211  52   0   5   8   0  1  0
 212  52   0   7   8   0  1  0
 213  52   0   5   8   0  1  0
 214  52   0   7   8   0  1  0
 215  52   0   5   8   0  1  0
 216  52   0   7   8   0  1  0
 217  52   0   5   8   0  1  0
 218  52   0   7   8   0  1  0
 219  52   0   5   8   0  1  0
 220  52   0   7   8   0  1  0
 221  52   0   5   8   0  1  0
 222  52   0   7   9   0  1  0
 223  52   0   5  10   0  1  0
 224  52   0   7  11   0  1  0
 225  52   0   5  11   0  1  0
 226  52   0   7  11   0  1  0
 227  52   0   5  11   0  1  0
 228  52   0   7  11   0  1  0
 229  52   0   5  11   0  1  0
 230  52   0   7  11   0  1  0
 231  52   0   5  11   0  1  0
 232  52   0   7  11   0  1  0
 233  52   0   5  11   0  1  0
 234  52   0   7  11   0  1  0
 235  52   0   5  11   0  1  0
 236  52   0   7  11   0  1  0
 237  52   0   5  11   0  1  0
 238  52   0   7  12   0  1  0
 239  52   0   5   6   0  1  0
 240  52   0   7   8   0  1  0
 241  52   0   5   8   0  1  0
 242  52   0   7   8   0  1  0
 243  52   0   5   8   0  1  0
 244  52   0   7   8   0  1  0
 245  52   0   5   8   0  1  0
 246  52   0   7   8   0  1  0
 247  52   0   5   8   0  1  0
 248  52   0   7   8   0  1  0
 249  52   0   5   8   0  1  0
 250  52   0   7   8   0  1  0
 251  52   0   5   8   0  1  0
 252  52   0   7   8   0  1  0
 253  52   0   5   8   0  1  0
 254  52   0   7   9   0  1  0
 255  42   0  13  14  19  0  0
 256 2102   1   0   0   1  0  0
 257  30   0   2   3  19  0  0
 258  52   0   5   6   0  1  0
 259  52   0   7   8   0  1  0
 260  52   0   5   8   0  1  0
 261  52   0   7   8   0  1  0
 262  52   0   5   8   0  1  0
 263  52   0   7   8   0  1  0
 264  52   0   5   8   0  1  0
 265  52   0   7   8   0  1  0
 266  52   0   5   8   0  1  0
 267  52   0   7   8   0  1  0
 268  52   0   5   8   0  1  0
 269  52   0   7   8   0  1  0
 270  52   0   5   8   0  1  0
 271  52   0   7   8   0  1  0
 272  52   0   5   8   0  1  0
 273  52   0   7   9   0  1  0
 274  52   0   5  10   0  1  0
 275  52   0   7  11   0  1  0
 276  52   0   5  11   0  1  0
 277  52   0   7  11   0  1  0
 278  52   0   5  11   0  1  0
 279  52   0   7  11   0  1  0
 280  52   0   5  11   0  1  0
 281  52   0   7  11   0  1  0
 282  52   0   5  11   0  1  0
 283  52   0   7  11   0  1  0
 284  52   0   5  11   0  1  0
 285  52   0   7  11   0  1  0
 286  52   0   5  11   0  1  0
 287  52   0   7  11   0  1  0
 288  52   0   5  11   0  1  0
 289  52   0   7  12   0  1  0
 290  52   0   5   6   0  1  0
 291  52   0   7   8   0  1  0
 292  52   0   5   8   0  1  0
 293  52   0   7   8   0  1  0
 294  52   0   5   8   0  1  0
 295  52   0   7   8   0  1  0
 296  52   0   5   8   0  1  0
 297  52   0   7   8   0  1  0
 298  52   0   5   8   0  1  0
 299  52   0   7   8   0  1  0
 300  52   0   5   8   0  1  0
 301  52   0   7   8   0  1  0
 302  52   0   5   8   0  1  0
 303  52   0   7   8   0  1  0
 304  52   0   5   8   0  1  0
 305  52   0   7   9   0  1  0
 306  42   0  13  14  18  0  0
 307 2102   1   0   0   1  0  0
 308  30   0   2   3  20  0  0
 309  52   0   5   6   0  1  0
 310  52   0   7   8   0  1  0
 311  52   0   5   8   0  1  0
 312  52   0   7   8   0  1  0
 313  52   0   5   8   0  1  0
[RF]
1      125.931 2 3 0 100 0 0
2      276.909 9 10 0 100 0 0

# Format of arbitrary gradients:
#   time_shape_id of 0 means default timing (stepping with grad_raster starting at 1/2 of grad_raster)
# id amplitude amp_shape_id time_shape_id delay
# ..      Hz/m       ..         ..          us
[GRADIENTS]
1       146684 1 0 100
6      83333.3 4 5 470
8      83333.3 6 7 0
9      83333.3 8 5 0
10     -83333.3 4 5 470
11     -83333.3 6 7 0
12     -83333.3 8 5 0

# Format of trapezoid gradients:
# id amplitude rise flat fall delay
# ..      Hz/m   us   us   us    us
[TRAP]
 2      -291667 150    0 150   0
 3      -240385 130    0 130   0
 4     -16025.6 130    0 130   0
 5       208333 100  320 100   0
 7      -208333 100  320 100   0
13      -416667 210    0 210   0
14       416667 210    0 210   0
15      16025.6 130    0 130   0
16     -48076.9 130    0 130   0
17      48076.9 130    0 130   0
18     -80128.2 130    0 130   0
19      80128.2 130    0 130   0
20      -112179 130    0 130   0
21       112179 130    0 130   0
22       144231 130    0 130   0
23      -144231 130    0 130   0
24       176282 130    0 130   0
25      -176282 130    0 130   0
26       208333 130    0 130   0
27      -208333 130    0 130   0
28       240385 130    0 130   0
29      4166.67  10 4000  10  90
30      -119345  70    0  70   0
31       291667 150    0 150   0

# Format of ADC events:
# id num dwell delay freq phase
# ..  ..    ns    us   Hz   rad
[ADC]
1 16 20000 100 0 0

# Sequence Shapes
[SHAPES]

shape_id 1
num_samples 2088
0
0
1
0.0585955
0.0732139
0.0146489
0
0
74
-0.0439314
-0.0732291
-0.0810267
-0.0862148
-0.0861842
-0.0862148
-0.0862148
1
-0.0861843
-0.0862148
-0.0862148
0
-0.0862147
-0.0861843
-0.0862148
0.0862148
0.0861843
0.0862147
0.0862148
0.0862148
0
0.0861843
0.0862148
0.0862148
1
0.0861842
0.0862148
0.0810267
0.0732291
0.0439314
0
0
74
-0.0146489
-0.0732139
-0.0758385
-0.0862147
-0.0861843
-0.0862148
-0.0862148
1
-0.0861843
-0.0862147
-0.0862148
-0.0862148
0
-0.0861843
-0.0862148
0.017243
0.0862148
0.0861842
0.0862148
0.0862148
1
0.0861843
0.0862148
0.0862148
0
0.0862147
0.0861843
0.0862148
0.0732444
0.0732139
0
0
75
-0.058565
-0.0732444
-0.0836207
-0.0861996
-0.0861995
-0.0862148
-0.0862148
0
-0.0861995
-0.0861995
0
-0.0862148
-0.0862148
0
-0.0861995
-0.0861996
-0.0517288
0.0862147
0.0861843
0.0862148
0.0862148
1
0.0861843
0.0862147
0.0862148
0.0862148
0
0.0861843
0.0862148
0.0784326
0.0732139
0.0292977
0
0
74
-0.0292977
-0.0732139
-0.0784326
-0.0862148
-0.0861843
-0.0862148
-0.0862148
0
-0.0862147
-0.0861843
-0.0862148
-0.0862148
1
-0.0861843
-0.0862147
0.0517288
0.0861996
0.0861995
0.0862148
0.0862148
0
0.0861995
0.0861995
0
0.0862148
0.0862148
0
0.0861995
0.0861996
0.0836207
0.0732444
0.058565
0
0
75
-0.0732139
-0.0732444
-0.0862148
-0.0861843
-0.0862147
-0.0862148
-0.0862148
0
-0.0861843
-0.0862148
-0.0862148
1
-0.0861842
-0.0862148
-0.017243
0.0862148
0.0861843
0.0862148
0.0862148
0
0.0862147
0.0861843
0.0862148
0.0862148
1
0.0861843
0.0862147
0.0758385
0.0732139
0.0146489
0
0
74
-0.0439314
-0.0732291
-0.0810267
-0.0862148
-0.0861842
-0.0862148
-0.0862148
1
-0.0861843
-0.0862148
-0.0862148
0
-0.0862147
-0.0861843
-0.0862148
0.0862148
0.0861843
0.0862147
0.0862148
0.0862148
0
0.0861843
0.0862148
0.0862148
1
0.0861842
0.0862148
0.0810267
0.0732291
0.0439314
0
0
74
-0.0146489
-0.0732139
-0.0758385
-0.0862147
-0.0861843
-0.0862148
-0.0862148
1
-0.0861843
-0.0862147
-0.0862148
-0.0862148
0
-0.0861843
-0.0862148
0.017243
0.0862148
0.0861842
0.0862148
0.0862148
1
0.0861843
0.0862148
0.0862148
0
0.0862147
0.0861843
0.0862148
0.0732444
0.0732139
0
0
75
-0.058565
-0.0732444
-0.0836207
-0.0861996
-0.0861995
-0.0862148
-0.0862148
0
-0.0861995
-0.0861995
0
-0.0862148
-0.0862148
0
-0.0861995
-0.0861996
-0.0517288
0.0862147
0.0861843
0.0862148
0.0862148
1
0.0861843
0.0862147
0.0862148
0.0862148
0
0.0861843
0.0862148
0.0784326
0.0732139
0.0292977
0
0
74
-0.0292977
-0.0732139
-0.0784326
-0.0862148
-0.0861843
-0.0862148
-0.0862148
0
-0.0862147
-0.0861843
-0.0862148
-0.0862148
1
-0.0861843
-0.0862147
0.0517288
0.0861996
0.0861995
0.0862148
0.0862148
0
0.0861995
0.0861995
0
0.0862148
0.0862148
0
0.0861995
0.0861996
0.0836207
0.0732444
0.058565
0
0
75
-0.0732139
-0.0732444
-0.0862148
-0.0861843
-0.0862147
-0.0862148
-0.0862148
0
-0.0861843
-0.0862148
-0.0862148
1
-0.0861842
-0.0862148
-0.017243
0.0862148
0.0861843
0.0862148
0.0862148
0
0.0862147
0.0861843
0.0862148
0.0862148
1
0.0861843
0.0862147
0.0758385
0.0732139
0.0146489
0
0
74
-0.0439314
-0.0732291
-0.0810267
-0.0862148
-0.0861842
-0.0862148
-0.0862148
1
-0.0861843
-0.0862148
-0.0862148
0
-0.0862147
-0.0861843
-0.0862148
0.0862148
0.0861843
0.0862147
0.0862148
0.0862148
0
0.0861843
0.0862148
0.0862148
1
0.0861842
0.0862148
0.0810267
0.0732291
0.0439314
0
0
74
-0.0146489
-0.0732139
-0.0758385
-0.0862147
-0.0861843
-0.0862148
-0.0862148
1
-0.0861843
-0.0862147
-0.0862148
-0.0862148
0
-0.0861843
-0.0862148
0.017243
0.0862148
0.0861842
0.0862148
0.0862148
1
0.0861843
0.0862148
0.0862148
0
0.0862147
0.0861843
0.0862148
0.0732444
0.0732139
0
0
75
-0.058565
-0.0732444
-0.0836207
-0.0861996
-0.0861995
-0.0862148
-0.0862148
0
-0.0861995
-0.0861995
0
-0.0862148
-0.0862148
0
-0.0861995
-0.0861996
-0.0517288
0.0862147
0.0861843
0.0862148
0.0862148
1
0.0861843
0.0862147
0.0862148
0.0862148
0
0.0861843
0.0862148
0.0784326
0.0732139
0.0292977
0
0
74
-0.0292977
-0.0732139
-0.0784326
-0.0862148
-0.0861843
-0.0862148
-0.0862148
0
-0.0862147
-0.0861843
-0.0862148
-0.0862148
1
-0.0861843
-0.0862147
0.0517288
0.0861996
0.0861995
0.0862148
0.0862148
0
0.0861995
0.0861995
0
0.0862148
0.0862148
0
0.0861995
0.0861996
0.0836207
0.0732444
0.058565
0
0
75
-0.0732139
-0.0732444
-0.0862148
-0.0861843
-0.0862147
-0.0862148
-0.0862148
0
-0.0861843
-0.0862148
-0.0862148
1
-0.0861842
-0.0862148
-0.017243
0.0862148
0.0861843
0.0862148
0.0862148
0
0.0862147
0.0861843
0.0862148
0.0862148
1
0.0861843
0.0862147
0.0758385
0.0732139
0.0146489
0
0
74
-0.0439314
-0.0732291
-0.0810267
-0.0862148
-0.0861842
-0.0862148
-0.0862148
1
-0.0861843
-0.0862148
-0.0862148
0
-0.0862147
-0.0861843
-0.0862148
0.0862148
0.0861843
0.0862147
0.0862148
0.0862148
0
0.0861843
0.0862148
0.0862148
1
0.0861842
0.0862148
0.0810267
0.0732291
0.0439314
0
0
74
-0.0146489
-0.0732139
-0.0758385
-0.0862147
-0.0861843
-0.0862148
-0.0862148
1
-0.0861843
-0.0862147
-0.0862148
-0.0862148
0
-0.0861843
-0.0862148
0.017243
0.0862148
0.0861842
0.0862148
0.0862148
1
0.0861843
0.0862148
0.0862148
0
0.0862147
0.0861843
0.0862148
0.0732444
0.0732139
0
0
75
-0.058565
-0.0732444
-0.0836207
-0.0861996
-0.0861995
-0.0862148
-0.0862148
0
-0.0861995
-0.0861995
0
-0.0862148
-0.0862148
0
-0.0861995
-0.0861996
-0.0517288
0.0862147
0.0861843
0.0862148
0.0862148
1
0.0861843
0.0862147
0.0862148
0.0862148
0
0.0861843
0.0862148
0.0784326
0.0732139
0.0292977
0
0
74
-0.0292977
-0.0732139
-0.0784326
-0.0862148
-0.0861843
-0.0862148
-0.0862148
0
-0.0862147
-0.0861843
-0.0862148
-0.0862148
1
-0.0861843
-0.0862147
0.0517288
0.0861996
0.0861995
0.0862148
0.0862148
0
0.0861995
0.0861995
0
0.0862148
0.0862148
0
0.0861995
0.0861996
0.0836207
0.0732444
0.058565
0
0
75
-0.0732139
-0.0732444
-0.0827052
-0.0826746
-0.0827052
-0.0826746
-0.0827052
-0.0827051
-0.0826747
-0.0827051
0.016541
0.0827052
0.0826746
0.0827052
0.0826899
0.0826899
0
0.0827051
0.0826747
0.0661641
0
0
1

shape_id 2
num_samples 20881
0
0
46
0.0001026
0.0001027
0.0001026
0.0001027
1.95e-05
1.96e-05
1.95e-05
1.96e-05
1.71e-05
1.71e-05
2
2.2e-05
2.2e-05
2
1.95e-05
1.96e-05
1.95e-05
1.96e-05
2.2e-05
2.2e-05
0
2.19e-05
2.2e-05
2.45e-05
2.44e-05
2.45e-05
2.44e-05
2.44e-05
0
2.45e-05
2.44e-05
2.44e-05
0
2.45e-05
2.44e-05
2.45e-05
2.44e-05
2.44e-05
0
2.45e-05
2.44e-05
2.44e-05
0
2.69e-05
2.69e-05
3
2.68e-05
2.69e-05
2.69e-05
2
2.68e-05
2.69e-05
2.69e-05
3
2.68e-05
2.69e-05
2.69e-05
1
2.93e-05
2.93e-05
0
2.94e-05
2.93e-05
2.69e-05
2.68e-05
2.69e-05
2.69e-05
0
2.44e-05
2.45e-05
2.44e-05
2.45e-05
2.68e-05
2.69e-05
2.69e-05
1
2.44e-05
2.45e-05
2.44e-05
2.44e-05
0
2.2e-05
2.2e-05
10
1.71e-05
1.71e-05
6
1.47e-05
1.46e-05
1.47e-05
1.47e-05
0
9.7e-06
9.8e-06
9.8e-06
1
7.3e-06
7.3e-06
0
7.4e-06
7.3e-06
4.9e-06
4.9e-06
1
4.8e-06
2.5e-06
2.4e-06
2.5e-06
2.4e-06
-2.4e-06
-2.5e-06
-2.4e-06
-2.5e-06
-7.3e-06
-7.3e-06
1
-7.4e-06
-1.22e-05
-1.22e-05
1
-1.23e-05
-1.46e-05
-1.47e-05
-1.46e-05
-1.47e-05
-1.96e-05
-1.95e-05
-1.96e-05
-1.95e-05
-2.69e-05
-2.69e-05
0
-2.68e-05
-2.69e-05
-3.18e-05
-3.18e-05
0
-3.17e-05
-3.18e-05
-3.67e-05
-3.66e-05
-3.67e-05
-3.66e-05
-4.16e-05
-4.15e-05
-4.16e-05
-4.15e-05
-4.89e-05
-4.89e-05
0
-4.88e-05
-4.89e-05
-5.62e-05
-5.62e-05
2
-6.11e-05
-6.11e-05
2
-6.6e-05
-6.6e-05
2
-7.57e-05
-7.58e-05
-7.57e-05
-7.58e-05
-8.06e-05
-8.07e-05
-8.06e-05
-8.07e-05
-8.79e-05
-8.8e-05
-8.8e-05
1
2.2e-05
2.2e-05
2
0.0001026
0.0001027
0.0001026
0.0001027
0.0001099
0.00011
0.00011
0
0.0001099
0.0001149
0.0001149
0
0.0001148
0.0001149
0.0001246
0.0001246
0
0.0001247
0.0001246
0.0001295
0.0001296
0.0001295
0.0001295
0
0.0001368
0.0001369
0.0001369
0
0.0001368
0.0001442
0.0001442
1
0.0001441
0.0001516
0.0001515
0.0001515
1
0.0001564
0.0001564
2
0.0001613
0.0001613
2
0.0001686
0.0001686
1
0.0001687
0.0001759
0.000176
0.0001759
0.000176
0.0001784
0.0001784
2
0.0001857
0.0001857
1
0.0001858
0.0001906
0.0001906
2
0.0001931
0.0001931
0
0.000193
0.0001931
0.0001979
0.000198
0.0001979
0.000198
0.0002004
0.0002003
0.0002004
0.0002004
0
0.0002053
0.0002053
1
0.0002052
0.0002053
0.0002053
2
0.0002101
0.0002102
0.0002102
0
0.0002101
0.0002102
0.0002102
0
0.0002101
0.0002102
0.0002126
0.0002126
2
0.0002102
0.0002102
0
0.0002101
0.0002102
0.0002126
0.0002126
4
0.0002127
0.0002126
0.0002101
0.0002102
0.0002102
0
0.0002101
0.0002078
0.0002077
0.0002077
1
0.0002053
0.0002053
1
0.0002052
0.0002029
0.0002028
0.0002028
0
0.0002029
0.0002004
0.0002004
1
0.0002003
0.0001931
0.0001931
0
0.000193
0.0001931
0.0001906
0.0001906
2
0.0001858
0.0001857
0.0001857
0
0.0001858
0.0001784
0.0001783
0.0001784
0.0001784
0
0.0001736
0.0001735
0.0001735
1
0.0001637
0.0001637
0
0.0001638
0.0001637
0.0001589
0.0001588
0.0001589
0.0001588
0.0001491
0.000149
0.0001491
0.0001491
0
0.0001417
0.0001418
0.0001417
0.0001417
0
0.000132
0.000132
0
0.0001319
0.000132
0.0001222
0.0001222
2
0.0001148
0.0001149
0.0001148
0.0001149
0.0001026
0.0001027
0.0001026
0.0001027
9.04e-05
9.04e-05
2
8.07e-05
8.06e-05
8.07e-05
8.06e-05
7.09e-05
7.09e-05
0
7.08e-05
7.09e-05
5.86e-05
5.87e-05
5.87e-05
0
5.86e-05
4.64e-05
4.65e-05
4.64e-05
4.64e-05
0
3.42e-05
3.43e-05
3.42e-05
3.42e-05
0
2.2e-05
2.2e-05
2
9.7e-06
9.8e-06
9.8e-06
1
0
0
2
-1.47e-05
-1.47e-05
0
-1.46e-05
-1.47e-05
-2.69e-05
-2.69e-05
0
-2.68e-05
-2.69e-05
-3.91e-05
-3.91e-05
2
-4.89e-05
-4.89e-05
0
-4.88e-05
-4.89e-05
-6.36e-05
-6.35e-05
-6.35e-05
0
-6.36e-05
-7.33e-05
-7.33e-05
2
-8.56e-05
-8.55e-05
-8.55e-05
0
-8.56e-05
-9.77e-05
-9.78e-05
-9.77e-05
-9.78e-05
-0.0001075
-0.0001075
0
-0.0001076
-0.0001075
-0.0001197
-0.0001198
-0.0001197
-0.0001198
-0.0001295
-0.0001295
2
-0.0001393
-0.0001393
2
-0.0001491
-0.0001491
0
-0.000149
-0.0001491
-0.0001564
-0.0001564
2
-0.0001662
-0.0001662
1
-0.0001661
-0.000176
-0.0001759
-0.000176
-0.000176
0
-0.0001808
-0.0001808
0
-0.0001809
-0.0001808
-0.0001882
-0.0001882
0
-0.0001881
-0.0001882
-0.0001955
-0.0001955
2
-0.0002029
-0.0002028
-0.0002028
0
-0.0002029
-0.0002052
-0.0002053
-0.0002053
1
-0.0002126
-0.0002126
2
-0.0002151
-0.000215
-0.0002151
-0.000215
-0.00022
-0.0002199
-0.0002199
0
-0.00022
-0.0002199
-0.00022
-0.0002199
-0.00022
-0.0002248
-0.0002248
1
-0.0002249
-0.0002248
-0.0002248
0
-0.0002249
-0.0002248
-0.0002273
-0.0002272
-0.0002273
-0.0002273
1
-0.0002272
-0.0002273
-0.0002273
0
-0.0002248
-0.0002248
0
-0.0002249
-0.0002248
-0.0002248
1
-0.0002249
-0.0002248
-0.0002248
0
-0.0002249
-0.0002248
-0.0002248
0
-0.0002224
-0.0002224
2
-0.0002199
-0.0002199
0
-0.00022
-0.0002199
-0.0002151
-0.000215
-0.0002151
-0.000215
-0.0002126
-0.0002127
-0.0002126
-0.0002126
0
-0.0002077
-0.0002077
1
-0.0002078
-0.0002028
-0.0002028
0
-0.0002029
-0.0002028
-0.0002004
-0.0002004
2
-0.000193
-0.0001931
-0.000193
-0.0001931
-0.0001857
-0.0001858
-0.0001857
-0.0001857
0
-0.0001809
-0.0001808
-0.0001808
0
-0.0001809
-0.0001735
-0.0001735
2
-0.0001686
-0.0001687
-0.0001686
-0.0001686
0
-0.0001589
-0.0001588
-0.0001588
0
-0.0001589
-0.000154
-0.0001539
-0.000154
-0.0001539
-0.0001467
-0.0001466
-0.0001466
1
-0.0001369
-0.0001368
-0.0001369
-0.0001368
0.0001001
0.0001002
0.0001002
1
0.0001222
0.0001222
2
0.0001124
0.0001124
2
0.0001051
0.0001051
2
9.77e-05
9.78e-05
9.77e-05
9.78e-05
9.04e-05
9.04e-05
1
9.05e-05
8.06e-05
8.07e-05
8.06e-05
8.07e-05
7.33e-05
7.33e-05
2
6.6e-05
6.6e-05
1
6.59e-05
5.87e-05
5.86e-05
5.87e-05
5.86e-05
5.14e-05
5.13e-05
5.13e-05
1
4.16e-05
4.15e-05
4.16e-05
4.15e-05
3.67e-05
3.66e-05
3.67e-05
3.66e-05
2.93e-05
2.94e-05
2.93e-05
2.93e-05
0
2.2e-05
2.2e-05
2
1.71e-05
1.71e-05
2
9.8e-06
9.8e-06
1
9.7e-06
4.9e-06
4.9e-06
2
-2.5e-06
-2.4e-06
-2.5e-06
-2.4e-06
-4.9e-06
-4.9e-06
1
-4.8e-06
-1.23e-05
-1.22e-05
-1.22e-05
1
-1.47e-05
-1.46e-05
-1.47e-05
-1.47e-05
0
-1.95e-05
-1.96e-05
-1.95e-05
-1.96e-05
-2.44e-05
-2.45e-05
-2.44e-05
-2.44e-05
0
-2.69e-05
-2.69e-05
2
-3.17e-05
-3.18e-05
-3.18e-05
0
-3.17e-05
-3.18e-05
-3.18e-05
0
-3.17e-05
-3.18e-05
-3.67e-05
-3.66e-05
-3.67e-05
-3.66e-05
-3.67e-05
-3.66e-05
-3.67e-05
-3.67e-05
0
-3.91e-05
-3.91e-05
2
-4.15e-05
-4.16e-05
-4.15e-05
-4.15e-05
0
-4.16e-05
-4.15e-05
-4.16e-05
-4.15e-05
-4.4e-05
-4.4e-05
4
-4.39e-05
-4.4e-05
-4.4e-05
5
-4.39e-05
-4.4e-05
-4.4e-05
6
-4.39e-05
-4.16e-05
-4.15e-05
-4.16e-05
-4.15e-05
-4.16e-05
-4.15e-05
-4.16e-05
-4.15e-05
-4.15e-05
0
-4.16e-05
-4.15e-05
-4.16e-05
-3.91e-05
-3.91e-05
6
-3.66e-05
-3.67e-05
-3.66e-05
-3.67e-05
-3.42e-05
-3.42e-05
1
-3.43e-05
-3.42e-05
-3.42e-05
2
-0.000198
-0.0001979
-0.000198
-0.0001979
0
0
262
0.0002884
0.0002883
0.0002884
0.0002884
0
4.88e-05
4.89e-05
4.89e-05
1
4.88e-05
4.89e-05
4.89e-05
1
5.37e-05
5.38e-05
5.38e-05
0
5.37e-05
5.62e-05
5.62e-05
0
5.63e-05
5.62e-05
5.62e-05
3
5.86e-05
5.87e-05
5.86e-05
5.87e-05
6.35e-05
6.36e-05
6.35e-05
6.35e-05
0
6.11e-05
6.11e-05
2
6.6e-05
6.6e-05
2
6.35e-05
6.35e-05
0
6.36e-05
6.35e-05
6.6e-05
6.6e-05
1
6.59e-05
6.6e-05
6.6e-05
3
6.59e-05
6.6e-05
6.6e-05
2
6.59e-05
6.6e-05
6.6e-05
3
6.35e-05
6.35e-05
0
6.36e-05
6.35e-05
6.11e-05
6.11e-05
2
5.86e-05
5.87e-05
5.86e-05
5.87e-05
5.62e-05
5.62e-05
2
5.13e-05
5.14e-05
5.13e-05
5.13e-05
0
4.89e-05
4.89e-05
0
4.88e-05
4.89e-05
4.64e-05
4.65e-05
4.64e-05
4.64e-05
0
3.91e-05
3.91e-05
2
3.18e-05
3.18e-05
0
3.17e-05
3.18e-05
2.93e-05
2.94e-05
2.93e-05
2.93e-05
0
1.96e-05
1.95e-05
1.96e-05
1.95e-05
1.22e-05
1.23e-05
1.22e-05
1.22e-05
0
4.9e-06
4.9e-06
1
4.8e-06
-2.4e-06
-2.4e-06
0
-2.5e-06
-2.4e-06
-1.22e-05
-1.23e-05
-1.22e-05
-1.22e-05
0
-2.44e-05
-2.45e-05
-2.44e-05
-2.45e-05
-3.17e-05
-3.18e-05
-3.18e-05
0
-3.17e-05
-4.4e-05
-4.4e-05
2
-5.38e-05
-5.37e-05
-5.38e-05
-5.37e-05
-6.85e-05
-6.84e-05
-6.84e-05
1
-7.82e-05
-7.82e-05
0
-7.83e-05
-7.82e-05
-9.04e-05
-9.04e-05
2
-0.0001051
-0.0001051
2
-0.0001173
-0.0001173
2
-0.0001319
-0.000132
-0.000132
0
-0.0001319
-0.0001467
-0.0001466
-0.0001466
1
-0.0001613
-0.0001613
2
-0.0001735
-0.0001735
2
-0.0001907
-0.0001906
-0.0001906
1
-0.0002028
-0.0002029
-0.0002028
-0.0002028
0
5.37e-05
5.38e-05
5.37e-05
5.38e-05
0.0002322
0.0002321
0.0002322
0.0002322
0
0.0002492
0.0002493
0.0002493
0
0.0002492
0.0002615
0.0002615
2
0.0002786
0.0002785
0.0002786
0.0002786
0
0.0002908
0.0002909
0.0002908
0.0002908
0
0.0003055
0.0003054
0.0003055
0.0003055
0
0.0003177
0.0003177
1
0.0003176
0.0003324
0.0003324
0
0.0003323
0.0003324
0.0003445
0.0003446
0.0003446
1
0.0003568
0.0003568
0
0.0003567
0.0003568
0.0003691
0.000369
0.000369
1
0.0003788
0.0003788
1
0.0003787
0.0003886
0.0003886
0
0.0003885
0.0003886
0.0003983
0.0003984
0.0003983
0.0003983
0
0.0004082
0.0004081
0.0004081
1
0.000413
0.000413
2
0.0004228
0.0004228
0
0.0004227
0.0004228
0.0004277
0.0004276
0.0004277
0.0004277
0
0.0004325
0.0004326
0.0004325
0.0004326
0.0004374
0.0004374
0
0.0004375
0.0004374
0.0004375
0.0004374
0.0004374
0
0.0004375
0.0004423
0.0004423
0
0.0004424
0.0004423
0.0004423
1
0.0004424
0.0004423
0.0004399
0.0004399
0
0.0004398
0.0004399
0.0004399
3
0.0004374
0.0004374
0
0.0004375
0.0004374
0.0004326
0.0004325
0.0004326
0.0004325
0.0004277
0.0004276
0.0004277
0.0004277
0
0.0004203
0.0004203
0
0.0004204
0.0004203
0.000413
0.000413
2
0.0004032
0.0004033
0.0004032
0.0004032
0
0.0003935
0.0003934
0.0003935
0.0003934
0.0003837
0.0003837
0
0.0003836
0.0003837
0.0003715
0.0003714
0.0003715
0.0003714
0.0003568
0.0003568
2
0.0003421
0.0003422
0.0003421
0.0003421
0
0.0003275
0.0003275
0
0.0003274
0.0003275
0.0003104
0.0003103
0.0003104
0.0003104
0
0.0002932
0.0002933
0.0002932
0.0002933
0.0002737
0.0002737
2
0.0002566
0.0002566
2
0.0002346
0.0002346
2
0.0002126
0.0002126
2
0.0001931
0.0001931
0
0.000193
0.0001931
0.0001686
0.0001686
0
0.0001687
0.0001686
0.0001466
0.0001466
0
0.0001467
0.0001466
0.0001246
0.0001246
0
0.0001247
0.0001246
9.78e-05
9.77e-05
9.78e-05
9.77e-05
7.58e-05
7.57e-05
7.58e-05
7.58e-05
0
5.13e-05
5.13e-05
2
2.69e-05
2.69e-05
2
2.4e-06
2.4e-06
0
2.5e-06
2.4e-06
-2.44e-05
-2.44e-05
0
-2.45e-05
-2.44e-05
-4.89e-05
-4.89e-05
0
-4.88e-05
-4.89e-05
-7.09e-05
-7.09e-05
0
-7.08e-05
-7.09e-05
-9.78e-05
-9.77e-05
-9.78e-05
-9.77e-05
-0.0001222
-0.0001222
2
-0.0001441
-0.0001442
-0.0001442
1
-0.0001686
-0.0001686
0
-0.0001687
-0.0001686
-0.000193
-0.0001931
-0.0001931
0
-0.000193
-0.0002151
-0.000215
-0.0002151
-0.000215
-0.0002346
-0.0002346
0
-0.0002347
-0.0002346
-0.0002566
-0.0002566
2
-0.0002785
-0.0002786
-0.0002786
1
-0.0002957
-0.0002957
2
-0.0003153
-0.0003152
-0.0003153
-0.0003152
-0.0003324
-0.0003323
-0.0003324
-0.0003323
-0.0003495
-0.0003495
0
-0.0003494
-0.0003495
-0.0003666
-0.0003665
-0.0003666
-0.0003666
0
-0.0003787
-0.0003788
-0.0003788
1
-0.0003935
-0.0003934
-0.0003935
-0.0003934
-0.0004057
-0.0004057
0
-0.0004056
-0.0004057
-0.0004179
-0.0004179
1
-0.0004178
-0.0004253
-0.0004252
-0.0004252
1
-0.000435
-0.000435
2
-0.0004423
-0.0004424
-0.0004423
-0.0004423
0
-0.0004497
-0.0004496
-0.0004497
-0.0004496
-0.0004546
-0.0004545
-0.0004546
-0.0004545
-0.000457
-0.000457
2
-0.0004594
-0.0004595
-0.0004594
-0.0004594
0
-0.0004619
-0.0004619
0
-0.0004618
-0.0004619
-0.0004595
-0.0004594
-0.0004594
0
-0.0004595
-0.0004618
-0.0004619
-0.0004619
1
-0.000457
-0.0004569
-0.000457
-0.000457
0
-0.0004546
-0.0004545
-0.0004546
-0.0004545
-0.0004497
-0.0004496
-0.0004497
-0.0004496
-0.0004424
-0.0004423
-0.0004423
1
-0.0004375
-0.0004374
-0.0004375
-0.0004374
-0.0004277
-0.0004276
-0.0004277
-0.0004277
0
-0.0004203
-0.0004203
1
-0.0004204
-0.0004105
-0.0004106
-0.0004106
0
-0.0004105
-0.0004008
-0.0004008
1
-0.0004007
-0.0003886
-0.0003886
0
-0.0003885
-0.0003886
-0.0003763
-0.0003764
-0.0003763
-0.0003764
-0.0003641
-0.0003641
1
-0.0003642
-0.0003519
-0.0003519
2
-0.0003348
-0.0003348
2
-0.0003226
-0.0003226
0
-0.0003225
-0.0003226
-0.0003079
-0.0003079
0
-0.000308
-0.0003079
-0.0002908
-0.0002908
2
-0.0002786
-0.0002786
2
0.0002004
0.0002004
2
0.0002443
0.0002444
0.0002444
1
0.0002297
0.0002297
2
0.0002102
0.0002102
0
0.0002101
0.0002102
0.000198
0.0001979
0.000198
0.0001979
0.0001784
0.0001784
2
0.0001637
0.0001638
0.0001637
0.0001637
0
0.0001491
0.0001491
0
0.000149
0.0001491
0.000132
0.0001319
0.000132
0.000132
0
0.0001173
0.0001173
2
0.0001002
0.0001002
2
8.79e-05
8.8e-05
8.8e-05
1
7.33e-05
7.33e-05
2
5.87e-05
5.86e-05
5.87e-05
5.86e-05
4.65e-05
4.64e-05
4.64e-05
0
4.65e-05
3.17e-05
3.18e-05
3.18e-05
0
3.17e-05
2.2e-05
2.2e-05
2
9.8e-06
9.8e-06
0
9.7e-06
9.8e-06
-2.4e-06
-2.5e-06
-2.4e-06
-2.5e-06
-1.22e-05
-1.22e-05
2
-2.2e-05
-2.2e-05
2
-3.18e-05
-3.18e-05
0
-3.17e-05
-3.18e-05
-3.91e-05
-3.91e-05
2
-4.64e-05
-4.65e-05
-4.64e-05
-4.64e-05
0
-5.38e-05
-5.38e-05
0
-5.37e-05
-5.38e-05
-6.11e-05
-6.11e-05
2
-6.59e-05
-6.6e-05
-6.6e-05
1
-7.09e-05
-7.08e-05
-7.09e-05
-7.09e-05
0
-7.57e-05
-7.58e-05
-7.57e-05
-7.58e-05
-7.82e-05
-7.82e-05
2
-8.31e-05
-8.31e-05
2
-8.3e-05
