# Pulseq sequence file
# Created by PyPulseq

[VERSION]
major 1
minor 4
revision 0

[DEFINITIONS]
AdcRasterTime 1e-07 
BlockDurationRaster 1e-05 
GradientRasterTime 1e-05 
RadiofrequencyRasterTime 1e-06 

# Format of blocks:
# NUM DUR RF  GX  GY  GZ  ADC  EXT
[BLOCKS]
  1 2102   1   0   0   1  0  0
  2  30   0   2   3   0  0  0
  3  52   0   4   0   0  1  0
  4  42   0   6   5   0  0  0
  5  52   0   4   0   0  1  0
  6  42   0   6   5   0  0  0
  7  52   0   4   0   0  1  0
  8  42   0   6   5   0  0  0
  9  52   0   4   0   0  1  0
 10  42   0   6   5   0  0  0
 11  52   0   4   0   0  1  0
 12  42   0   6   5   0  0  0
 13  52   0   4   0   0  1  0
 14  42   0   6   5   0  0  0
 15  52   0   4   0   0  1  0
 16  42   0   6   5   0  0  0
 17  52   0   4   0   0  1  0
 18  42   0   6   5   0  0  0
 19  52   0   4   0   0  1  0
 20  42   0   6   5   0  0  0
 21  52   0   4   0   0  1  0
 22  42   0   6   5   0  0  0
 23  52   0   4   0   0  1  0
 24  42   0   6   5   0  0  0
 25  52   0   4   0   0  1  0
 26  42   0   6   5   0  0  0
 27  52   0   4   0   0  1  0
 28  42   0   6   5   0  0  0
 29  52   0   4   0   0  1  0
 30  42   0   6   5   0  0  0
 31  52   0   4   0   0  1  0
 32  42   0   6   5   0  0  0
 33  52   0   4   0   0  1  0
 34 2102   2   0   0   1  0  0
 35  30   0   2   3   0  0  0
 36  52   0   4   0   0  1  0
 37  42   0   6   5   0  0  0
 38  52   0   4   0   0  1  0
 39  42   0   6   5   0  0  0
 40  52   0   4   0   0  1  0
 41  42   0   6   5   0  0  0
 42  52   0   4   0   0  1  0
 43  42   0   6   5   0  0  0
 44  52   0   4   0   0  1  0
 45  42   0   6   5   0  0  0
 46  52   0   4   0   0  1  0
 47  42   0   6   5   0  0  0
 48  52   0   4   0   0  1  0
 49  42   0   6   5   0  0  0
 50  52   0   4   0   0  1  0
 51  42   0   6   5   0  0  0
 52  52   0   4   0   0  1  0
 53  42   0   6   5   0  0  0
 54  52   0   4   0   0  1  0
 55  42   0   6   5   0  0  0
 56  52   0   4   0   0  1  0
 57  42   0   6   5   0  0  0
 58  52   0   4   0   0  1  0
 59  42   0   6   5   0  0  0
 60  52   0   4   0   0  1  0
 61  42   0   6   5   0  0  0
 62  52   0   4   0   0  1  0
 63  42   0   6   5   0  0  0
 64  52   0   4   0   0  1  0
 65  42   0   6   5   0  0  0
 66  52   0   4   0   0  1  0
 67 2102   3   0   0   1  0  0
 68  30   0   2   3   0  0  0
 69  52   0   4   0   0  1  0
 70  42   0   6   5   0  0  0
 71  52   0   4   0   0  1  0
 72  42   0   6   5   0  0  0
 73  52   0   4   0   0  1  0
 74  42   0   6   5   0  0  0
 75  52   0   4   0   0  1  0
 76  42   0   6   5   0  0  0
 77  52   0   4   0   0  1  0
 78  42   0   6   5   0  0  0
 79  52   0   4   0   0  1  0
 80  42   0   6   5   0  0  0
 81  52   0   4   0   0  1  0
 82  42   0   6   5   0  0  0
 83  52   0   4   0   0  1  0
 84  42   0   6   5   0  0  0
 85  52   0   4   0   0  1  0
 86  42   0   6   5   0  0  0
 87  52   0   4   0   0  1  0
 88  42   0   6   5   0  0  0
 89  52   0   4   0   0  1  0
 90  42   0   6   5   0  0  0
 91  52   0   4   0   0  1  0
 92  42   0   6   5   0  0  0
 93  52   0   4   0   0  1  0
 94  42   0   6   5   0  0  0
 95  52   0   4   0   0  1  0
 96  42   0   6   5   0  0  0
 97  52   0   4   0   0  1  0
 98  42   0   6   5   0  0  0
 99  52   0   4   0   0  1  0
100 2102   4   0   0   1  0  0
101  30   0   2   3   0  0  0
102  52   0   4   0   0  1  0
103  42   0   6   5   0  0  0
104  52   0   4   0   0  1  0
105  42   0   6   5   0  0  0
106  52   0   4   0   0  1  0
107  42   0   6   5   0  0  0
108  52   0   4   0   0  1  0
109  42   0   6   5   0  0  0
110  52   0   4   0   0  1  0
111  42   0   6   5   0  0  0
112  52   0   4   0   0  1  0
113  42   0   6   5   0  0  0
114  52   0   4   0   0  1  0
115  42   0   6   5   0  0  0
116  52   0   4   0   0  1  0
117  42   0   6   5   0  0  0
118  52   0   4   0   0  1  0
119  42   0   6   5   0  0  0
120  52   0   4   0   0  1  0
121  42   0   6   5   0  0  0
122  52   0   4   0   0  1  0
123  42   0   6   5   0  0  0
124  52   0   4   0   0  1  0
125  42   0   6   5   0  0  0
126  52   0   4   0   0  1  0
127  42   0   6   5   0  0  0
128  52   0   4   0   0  1  0
129  42   0   6   5   0  0  0
130  52   0   4   0   0  1  0
131  42   0   6   5   0  0  0
132  52   0   4   0   0  1  0
133 2102   5   0   0   1  0  0
134  30   0   2   3   0  0  0
135  52   0   4   0   0  1  0
136  42   0   6   5   0  0  0
137  52   0   4   0   0  1  0
138  42   0   6   5   0  0  0
139  52   0   4   0   0  1  0
140  42   0   6   5   0  0  0
141  52   0   4   0   0  1  0
142  42   0   6   5   0  0  0
143  52   0   4   0   0  1  0
144  42   0   6   5   0  0  0
145  52   0   4   0   0  1  0
146  42   0   6   5   0  0  0
147  52   0   4   0   0  1  0
148  42   0   6   5   0  0  0
149  52   0   4   0   0  1  0
150  42   0   6   5   0  0  0
151  52   0   4   0   0  1  0
152  42   0   6   5   0  0  0
153  52   0   4   0   0  1  0
154  42   0   6   5   0  0  0
155  52   0   4   0   0  1  0
156  42   0   6   5   0  0  0
157  52   0   4   0   0  1  0
158  42   0   6   5   0  0  0
159  52   0   4   0   0  1  0
160  42   0   6   5   0  0  0
161  52   0   4   0   0  1  0
162  42   0   6   5   0  0  0
163  52   0   4   0   0  1  0
164  42   0   6   5   0  0  0
165  52   0   4   0   0  1  0
166 2102   6   0   0   1  0  0
167  30   0   2   3   0  0  0
168  52   0   4   0   0  1  0
169  42   0   6   5   0  0  0
170  52   0   4   0   0  1  0
171  42   0   6   5   0  0  0
172  52   0   4   0   0  1  0
173  42   0   6   5   0  0  0
174  52   0   4   0   0  1  0
175  42   0   6   5   0  0  0
176  52   0   4   0   0  1  0
177  42   0   6   5   0  0  0
178  52   0   4   0   0  1  0
179  42   0   6   5   0  0  0
180  52   0   4   0   0  1  0
181  42   0   6   5   0  0  0
182  52   0   4   0   0  1  0
183  42   0   6   5   0  0  0
184  52   0   4   0   0  1  0
185  42   0   6   5   0  0  0
186  52   0   4   0   0  1  0
187  42   0   6   5   0  0  0
188  52   0   4   0   0  1  0
189  42   0   6   5   0  0  0
190  52   0   4   0   0  1  0
191  42   0   6   5   0  0  0
192  52   0   4   0   0  1  0
193  42   0   6   5   0  0  0
194  52   0   4   0   0  1  0
195  42   0   6   5   0  0  0
196  52   0   4   0   0  1  0
197  42   0   6   5   0  0  0
198  52   0   4   0   0  1  0
199 2102   7   0   0   1  0  0
200  30   0   2   3   0  0  0
201  52   0   4   0   0  1  0
202  42   0   6   5   0  0  0
203  52   0   4   0   0  1  0
204  42   0   6   5   0  0  0
205  52   0   4   0   0  1  0
206  42   0   6   5   0  0  0
207  52   0   4   0   0  1  0
208  42   0   6   5   0  0  0
209  52   0   4   0   0  1  0
210  42   0   6   5   0  0  0
211  52   0   4   0   0  1  0
212  42   0   6   5   0  0  0
213  52   0   4   0   0  1  0
214  42   0   6   5   0  0  0
215  52   0   4   0   0  1  0
216  42   0   6   5   0  0  0
217  52   0   4   0   0  1  0
218  42   0   6   5   0  0  0
219  52   0   4   0   0  1  0
220  42   0   6   5   0  0  0
221  52   0   4   0   0  1  0
222  42   0   6   5   0  0  0
223  52   0   4   0   0  1  0
224  42   0   6   5   0  0  0
225  52   0   4   0   0  1  0
226  42   0   6   5   0  0  0
227  52   0   4   0   0  1  0
228  42   0   6   5   0  0  0
229  52   0   4   0   0  1  0
230  42   0   6   5   0  0  0
231  52   0   4   0   0  1  0
232 2102   8   0   0   1  0  0
233  30   0   2   3   0  0  0
234  52   0   4   0   0  1  0
235  42   0   6   5   0  0  0
236  52   0   4   0   0  1  0
237  42   0   6   5   0  0  0
238  52   0   4   0   0  1  0
239  42   0   6   5   0  0  0
240  52   0   4   0   0  1  0
241  42   0   6   5   0  0  0
242  52   0   4   0   0  1  0
243  42   0   6   5   0  0  0
244  52   0   4   0   0  1  0
245  42   0   6   5   0  0  0
246  52   0   4   0   0  1  0
247  42   0   6   5   0  0  0
248  52   0   4   0   0  1  0
249  42   0   6   5   0  0  0
250  52   0   4   0   0  1  0
251  42   0   6   5   0  0  0
252  52   0   4   0   0  1  0
253  42   0   6   5   0  0  0
254  52   0   4   0   0  1  0
255  42   0   6   5   0  0  0
256  52   0   4   0   0  1  0
257  42   0   6   5   0  0  0
258  52   0   4   0   0  1  0
259  42   0   6   5   0  0  0
260  52   0   4   0   0  1  0
261  42   0   6   5   0  0  0
262  52   0   4   0   0  1  0
263  42   0   6   5   0  0  0
264  52   0   4   0   0  1  0
265 2102   9   0   0   1  0  0
266  30   0   2   3   0  0  0
267  52   0   4   0   0  1  0
268  42   0   6   5   0  0  0
269  52   0   4   0   0  1  0
270  42   0   6   5   0  0  0
271  52   0   4   0   0  1  0
272  42   0   6   5   0  0  0
273  52   0   4   0   0  1  0
274  42   0   6   5   0  0  0
275  52   0   4   0   0  1  0
276  42   0   6   5   0  0  0
277  52   0   4   0   0  1  0
278  42   0   6   5   0  0  0
279  52   0   4   0   0  1  0
280  42   0   6   5   0  0  0
281  52   0   4   0   0  1  0
282  42   0   6   5   0  0  0
283  52   0   4   0   0  1  0
284  42   0   6   5   0  0  0
285  52   0   4   0   0  1  0
286  42   0   6   5   0  0  0
287  52   0   4   0   0  1  0
288  42   0   6   5   0  0  0
289  52   0   4   0   0  1  0
290  42   0   6   5   0  0  0
291  52   0   4   0   0  1  0
292  42   0   6   5   0  0  0
293  52   0   4   0   0  1  0
294  42   0   6   5   0  0  0
295  52   0   4   0   0  1  0
296  42   0   6   5   0  0  0
297  52   0   4   0   0  1  0
298 2102  10   0   0   1  0  0
299  30   0   2   3   0  0  0
300  52   0   4   0   0  1  0
301  42   0   6   5   0  0  0
302  52   0   4   0   0  1  0
303  42   0   6   5   0  0  0
304  52   0   4   0   0  1  0
305  42   0   6   5   0  0  0
306  52   0   4   0   0  1  0
307  42   0   6   5   0  0  0
308  52   0   4   0   0  1  0
309  42   0   6   5   0  0  0
310  52   0   4   0   0  1  0
311  42   0   6   5   0  0  0
312  52   0   4   0   0  1  0
313  42   0   6   5   0  0  0
314  52   0   4   0   0  1  0
315  42   0   6   5   0  0  0
316  52   0   4   0   0  1  0
317  42   0   6   5   0  0  0
318  52   0   4   0   0  1  0
319  42   0   6   5   0  0  0
320  52   0   4   0   0  1  0
321  42   0   6   5   0  0  0
322  52   0   4   0   0  1  0
323  42   0   6   5   0  0  0
324  52   0   4   0   0  1  0
[RF]
1      125.931 2 3 0 100 0 0
2      125.931 2 4 0 100 0 0
3      125.931 2 5 0 100 0 0
4      125.931 2 6 0 100 0 0
5      125.931 2 7 0 100 0 0
6      125.931 2 8 0 100 0 0
7      125.931 2 9 0 100 0 0
8      125.931 2 10 0 100 0 0
9      125.931 2 11 0 100 0 0
10      125.931 2 12 0 100 0 0
11      125.931 2 13 0 100 0 0
12      125.931 2 14 0 100 0 0
13      125.931 2 15 0 100 0 0
14      125.931 2 16 0 100 0 0
15      125.931 2 17 0 100 0 0
16      125.931 2 18 0 100 0 0

# Format of arbitrary gradients:
#   time_shape_id of 0 means default timing (stepping with grad_raster starting at 1/2 of grad_raster)
# id amplitude amp_shape_id time_shape_id delay
# ..      Hz/m       ..         ..          us
[GRADIENTS]
1            0 1 0 100

# Format of trapezoid gradients:
# id amplitude rise flat fall delay
# ..      Hz/m   us   us   us    us
[TRAP]
 2      -291667 150    0 150   0
 3            0 130    0 130   0
 4       208333 100  320 100   0
 5            0  50    0  50   0
 6      -416667 210    0 210   0

# Format of ADC events:
# id num dwell delay freq phase
# ..  ..    ns    us   Hz   rad
[ADC]
1 16 20000 100 0 0

# Sequence Shapes
[SHAPES]

shape_id 1
num_samples 2088
0
0
2086

shape_id 2
num_samples 20881
0
0
46
0.0001026
0.0001027
0.0001026
0.0001027
1.95e-05
1.96e-05
1.95e-05
1.96e-05
1.71e-05
1.71e-05
2
2.2e-05
2.2e-05
2
1.95e-05
1.96e-05
1.95e-05
1.96e-05
2.2e-05
2.2e-05
0
2.19e-05
2.2e-05
2.45e-05
2.44e-05
2.45e-05
2.44e-05
2.44e-05
0
2.45e-05
2.44e-05
2.44e-05
0
2.45e-05
2.44e-05
2.45e-05
2.44e-05
2.44e-05
0
2.45e-05
2.44e-05
2.44e-05
0
2.69e-05
2.69e-05
3
2.68e-05
2.69e-05
2.69e-05
2
2.68e-05
2.69e-05
2.69e-05
3
2.68e-05
2.69e-05
2.69e-05
1
2.93e-05
2.93e-05
0
2.94e-05
2.93e-05
2.69e-05
2.68e-05
2.69e-05
2.69e-05
0
2.44e-05
2.45e-05
2.44e-05
2.45e-05
2.68e-05
2.69e-05
2.69e-05
1
2.44e-05
2.45e-05
2.44e-05
2.44e-05
0
2.2e-05
2.2e-05
10
1.71e-05
1.71e-05
6
1.47e-05
1.46e-05
1.47e-05
1.47e-05
0
9.7e-06
9.8e-06
9.8e-06
1
7.3e-06
7.3e-06
0
7.4e-06
7.3e-06
4.9e-06
4.9e-06
1
4.8e-06
2.5e-06
2.4e-06
2.5e-06
2.4e-06
-2.4e-06
-2.5e-06
-2.4e-06
-2.5e-06
-7.3e-06
-7.3e-06
1
-7.4e-06
-1.22e-05
-1.22e-05
1
-1.23e-05
-1.46e-05
-1.47e-05
-1.46e-05
-1.47e-05
-1.96e-05
-1.95e-05
-1.96e-05
-1.95e-05
-2.69e-05
-2.69e-05
0
-2.68e-05
-2.69e-05
-3.18e-05
-3.18e-05
0
-3.17e-05
-3.18e-05
-3.67e-05
-3.66e-05
-3.67e-05
-3.66e-05
-4.16e-05
-4.15e-05
-4.16e-05
-4.15e-05
-4.89e-05
-4.89e-05
0
-4.88e-05
-4.89e-05
-5.62e-05
-5.62e-05
2
-6.11e-05
-6.11e-05
2
-6.6e-05
-6.6e-05
2
-7.57e-05
-7.58e-05
-7.57e-05
-7.58e-05
-8.06e-05
-8.07e-05
-8.06e-05
-8.07e-05
-8.79e-05
-8.8e-05
-8.8e-05
1
2.2e-05
2.2e-05
2
0.0001026
0.0001027
0.0001026
0.0001027
0.0001099
0.00011
0.00011
0
0.0001099
0.0001149
0.0001149
0
0.0001148
0.0001149
0.0001246
0.0001246
0
0.0001247
0.0001246
0.0001295
0.0001296
0.0001295
0.0001295
0
0.0001368
0.0001369
0.0001369
0
0.0001368
0.0001442
0.0001442
1
0.0001441
0.0001516
0.0001515
0.0001515
1
0.0001564
0.0001564
2
0.0001613
0.0001613
2
0.0001686
0.0001686
1
0.0001687
0.0001759
0.000176
0.0001759
0.000176
0.0001784
0.0001784
2
0.0001857
0.0001857
1
0.0001858
0.0001906
0.0001906
2
0.0001931
0.0001931
0
0.000193
0.0001931
0.0001979
0.000198
0.0001979
0.000198
0.0002004
0.0002003
0.0002004
0.0002004
0
0.0002053
0.0002053
1
0.0002052
0.0002053
0.0002053
2
0.0002101
0.0002102
0.0002102
0
0.0002101
0.0002102
0.0002102
0
0.0002101
0.0002102
0.0002126
0.0002126
2
0.0002102
0.0002102
0
0.0002101
0.0002102
0.0002126
0.0002126
4
0.0002127
0.0002126
0.0002101
0.0002102
0.0002102
0
0.0002101
0.0002078
0.0002077
0.0002077
1
0.0002053
0.0002053
1
0.0002052
0.0002029
0.0002028
0.0002028
0
0.0002029
0.0002004
0.0002004
1
0.0002003
0.0001931
0.0001931
0
0.000193
0.0001931
0.0001906
0.0001906
2
0.0001858
0.0001857
0.0001857
0
0.0001858
0.0001784
0.0001783
0.0001784
0.0001784
0
0.0001736
0.0001735
0.0001735
1
0.0001637
0.0001637
0
0.0001638
0.0001637
0.0001589
0.0001588
0.0001589
0.0001588
0.0001491
0.000149
0.0001491
0.0001491
0
0.0001417
0.0001418
0.0001417
0.0001417
0
0.000132
0.000132
0
0.0001319
0.000132
0.0001222
0.0001222
2
0.0001148
0.0001149
0.0001148
0.0001149
0.0001026
0.0001027
0.0001026
0.0001027
9.04e-05
9.04e-05
2
8.07e-05
8.06e-05
8.07e-05
8.06e-05
7.09e-05
7.09e-05
0
7.08e-05
7.09e-05
5.86e-05
5.87e-05
5.87e-05
0
5.86e-05
4.64e-05
4.65e-05
4.64e-05
4.64e-05
0
3.42e-05
3.43e-05
3.42e-05
3.42e-05
0
2.2e-05
2.2e-05
2
9.7e-06
9.8e-06
9.8e-06
1
0
0
2
-1.47e-05
-1.47e-05
0
-1.46e-05
-1.47e-05
-2.69e-05
-2.69e-05
0
-2.68e-05
-2.69e-05
-3.91e-05
-3.91e-05
2
-4.89e-05
-4.89e-05
0
-4.88e-05
-4.89e-05
-6.36e-05
-6.35e-05
-6.35e-05
0
-6.36e-05
-7.33e-05
-7.33e-05
2
-8.56e-05
-8.55e-05
-8.55e-05
0
-8.56e-05
-9.77e-05
-9.78e-05
-9.77e-05
-9.78e-05
-0.0001075
-0.0001075
0
-0.0001076
-0.0001075
-0.0001197
-0.0001198
-0.0001197
-0.0001198
-0.0001295
-0.0001295
2
-0.0001393
-0.0001393
2
-0.0001491
-0.0001491
0
-0.000149
-0.0001491
-0.0001564
-0.0001564
2
-0.0001662
-0.0001662
1
-0.0001661
-0.000176
-0.0001759
-0.000176
-0.000176
0
-0.0001808
-0.0001808
0
-0.0001809
-0.0001808
-0.0001882
-0.0001882
0
-0.0001881
-0.0001882
-0.0001955
-0.0001955
2
-0.0002029
-0.0002028
-0.0002028
0
-0.0002029
-0.0002052
-0.0002053
-0.0002053
1
-0.0002126
-0.0002126
2
-0.0002151
-0.000215
-0.0002151
-0.000215
-0.00022
-0.0002199
-0.0002199
0
-0.00022
-0.0002199
-0.00022
-0.0002199
-0.00022
-0.0002248
-0.0002248
1
-0.0002249
-0.0002248
-0.0002248
0
-0.0002249
-0.0002248
-0.0002273
-0.0002272
-0.0002273
-0.0002273
1
-0.0002272
-0.0002273
-0.0002273
0
-0.0002248
-0.0002248
0
-0.0002249
-0.0002248
-0.0002248
1
-0.0002249
-0.0002248
-0.0002248
0
-0.0002249
-0.0002248
-0.0002248
0
-0.0002224
-0.0002224
2
-0.0002199
-0.0002199
0
-0.00022
-0.0002199
-0.0002151
-0.000215
-0.0002151
-0.000215
-0.0002126
-0.0002127
-0.0002126
-0.0002126
0
-0.0002077
-0.0002077
1
-0.0002078
-0.0002028
-0.0002028
0
-0.0002029
-0.0002028
-0.0002004
-0.0002004
2
-0.000193
-0.0001931
-0.000193
-0.0001931
-0.0001857
-0.0001858
-0.0001857
-0.0001857
0
-0.0001809
-0.0001808
-0.0001808
0
-0.0001809
-0.0001735
-0.0001735
2
-0.0001686
-0.0001687
-0.0001686
-0.0001686
0
-0.0001589
-0.0001588
-0.0001588
0
-0.0001589
-0.000154
-0.0001539
-0.000154
-0.0001539
-0.0001467
-0.0001466
-0.0001466
1
-0.0001369
-0.0001368
-0.0001369
-0.0001368
0.0001001
0.0001002
0.0001002
1
0.0001222
0.0001222
2
0.0001124
0.0001124
2
0.0001051
0.0001051
2
9.77e-05
9.78e-05
9.77e-05
9.78e-05
9.04e-05
9.04e-05
1
9.05e-05
8.06e-05
8.07e-05
8.06e-05
8.07e-05
7.33e-05
7.33e-05
2
6.6e-05
6.6e-05
1
6.59e-05
5.87e-05
5.86e-05
5.87e-05
5.86e-05
5.14e-05
5.13e-05
5.13e-05
1
4.16e-05
4.15e-05
4.16e-05
4.15e-05
3.67e-05
3.66e-05
3.67e-05
3.66e-05
2.93e-05
2.94e-05
2.93e-05
2.93e-05
0
2.2e-05
2.2e-05
2
1.71e-05
1.71e-05
2
9.8e-06
9.8e-06
1
9.7e-06
4.9e-06
4.9e-06
2
-2.5e-06
-2.4e-06
-2.5e-06
-2.4e-06
-4.9e-06
-4.9e-06
1
-4.8e-06
-1.23e-05
-1.22e-05
-1.22e-05
1
-1.47e-05
-1.46e-05
-1.47e-05
-1.47e-05
0
-1.95e-05
-1.96e-05
-1.95e-05
-1.96e-05
-2.44e-05
-2.45e-05
-2.44e-05
-2.44e-05
0
-2.69e-05
-2.69e-05
2
-3.17e-05
-3.18e-05
-3.18e-05
0
-3.17e-05
-3.18e-05
-3.18e-05
0
-3.17e-05
-3.18e-05
-3.67e-05
-3.66e-05
-3.67e-05
-3.66e-05
-3.67e-05
-3.66e-05
-3.67e-05
-3.67e-05
0
-3.91e-05
-3.91e-05
2
-4.15e-05
-4.16e-05
-4.15e-05
-4.15e-05
0
-4.16e-05
-4.15e-05
-4.16e-05
-4.15e-05
-4.4e-05
-4.4e-05
4
-4.39e-05
-4.4e-05
-4.4e-05
5
-4.39e-05
-4.4e-05
-4.4e-05
6
-4.39e-05
-4.16e-05
-4.15e-05
-4.16e-05
-4.15e-05
-4.16e-05
-4.15e-05
-4.16e-05
-4.15e-05
-4.15e-05
0
-4.16e-05
-4.15e-05
-4.16e-05
-3.91e-05
-3.91e-05
6
-3.66e-05
-3.67e-05
-3.66e-05
-3.67e-05
-3.42e-05
-3.42e-05
1
-3.43e-05
-3.42e-05
-3.42e-05
2
-0.000198
-0.0001979
-0.000198
-0.0001979
0
0
262
0.0002884
0.0002883
0.0002884
0.0002884
0
4.88e-05
4.89e-05
4.89e-05
1
4.88e-05
4.89e-05
4.89e-05
1
5.37e-05
5.38e-05
5.38e-05
0
5.37e-05
5.62e-05
5.62e-05
0
5.63e-05
5.62e-05
5.62e-05
3
5.86e-05
5.87e-05
5.86e-05
5.87e-05
6.35e-05
6.36e-05
6.35e-05
6.35e-05
0
6.11e-05
6.11e-05
2
6.6e-05
6.6e-05
2
6.35e-05
6.35e-05
0
6.36e-05
6.35e-05
6.6e-05
6.6e-05
1
6.59e-05
6.6e-05
6.6e-05
3
6.59e-05
6.6e-05
6.6e-05
2
6.59e-05
6.6e-05
6.6e-05
3
6.35e-05
6.35e-05
0
6.36e-05
6.35e-05
6.11e-05
6.11e-05
2
5.86e-05
5.87e-05
5.86e-05
5.87e-05
5.62e-05
5.62e-05
2
5.13e-05
5.14e-05
5.13e-05
5.13e-05
0
4.89e-05
4.89e-05
0
4.88e-05
4.89e-05
4.64e-05
4.65e-05
4.64e-05
4.64e-05
0
3.91e-05
3.91e-05
2
3.18e-05
3.18e-05
0
3.17e-05
3.18e-05
2.93e-05
2.94e-05
2.93e-05
2.93e-05
0
1.96e-05
1.95e-05
1.96e-05
1.95e-05
1.22e-05
1.23e-05
1.22e-05
1.22e-05
0
4.9e-06
4.9e-06
1
4.8e-06
-2.4e-06
-2.4e-06
0
-2.5e-06
-2.4e-06
-1.22e-05
-1.23e-05
-1.22e-05
-1.22e-05
0
-2.44e-05
-2.45e-05
-2.44e-05
-2.45e-05
-3.17e-05
-3.18e-05
-3.18e-05
0
-3.17e-05
-4.4e-05
-4.4e-05
2
-5.38e-05
-5.37e-05
-5.38e-05
-5.37e-05
-6.85e-05
-6.84e-05
-6.84e-05
1
-7.82e-05
-7.82e-05
0
-7.83e-05
-7.82e-05
-9.04e-05
-9.04e-05
2
-0.0001051
-0.0001051
2
-0.0001173
-0.0001173
2
-0.0001319
-0.000132
-0.000132
0
-0.0001319
-0.0001467
-0.0001466
-0.0001466
1
-0.0001613
-0.0001613
2
-0.0001735
-0.0001735
2
-0.0001907
-0.0001906
-0.0001906
1
-0.0002028
-0.0002029
-0.0002028
-0.0002028
0
5.37e-05
5.38e-05
5.37e-05
5.38e-05
0.0002322
0.0002321
0.0002322
0.0002322
0
0.0002492
0.0002493
0.0002493
0
0.0002492
0.0002615
0.0002615
2
0.0002786
0.0002785
0.0002786
0.0002786
0
0.0002908
0.0002909
0.0002908
0.0002908
0
0.0003055
0.0003054
0.0003055
0.0003055
0
0.0003177
0.0003177
1
0.0003176
0.0003324
0.0003324
0
0.0003323
0.0003324
0.0003445
0.0003446
0.0003446
1
0.0003568
0.0003568
0
0.0003567
0.0003568
0.0003691
0.000369
0.000369
1
0.0003788
0.0003788
1
0.0003787
0.0003886
0.0003886
0
0.0003885
0.0003886
0.0003983
0.0003984
0.0003983
0.0003983
0
0.0004082
0.0004081
0.0004081
1
0.000413
0.000413
2
0.0004228
0.0004228
0
0.0004227
0.0004228
0.0004277
0.0004276
0.0004277
0.0004277
0
0.0004325
0.0004326
0.0004325
0.0004326
0.0004374
0.0004374
0
0.0004375
0.0004374
0.0004375
0.0004374
0.0004374
0
0.0004375
0.0004423
0.0004423
0
0.0004424
0.0004423
0.0004423
1
0.0004424
0.0004423
0.0004399
0.0004399
0
0.0004398
0.0004399
0.0004399
3
0.0004374
0.0004374
0
0.0004375
0.0004374
0.0004326
0.0004325
0.0004326
0.0004325
0.0004277
0.0004276
0.0004277
0.0004277
0
0.0004203
0.0004203
0
0.0004204
0.0004203
0.000413
0.000413
2
0.0004032
0.0004033
0.0004032
0.0004032
0
0.0003935
0.0003934
0.0003935
0.0003934
0.0003837
0.0003837
0
0.0003836
0.0003837
0.0003715
0.0003714
0.0003715
0.0003714
0.0003568
0.0003568
2
0.0003421
0.0003422
0.0003421
0.0003421
0
0.0003275
0.0003275
0
0.0003274
0.0003275
0.0003104
0.0003103
0.0003104
0.0003104
0
0.0002932
0.0002933
0.0002932
0.0002933
0.0002737
0.0002737
2
0.0002566
0.0002566
2
0.0002346
0.0002346
2
0.0002126
0.0002126
2
0.0001931
0.0001931
0
0.000193
0.0001931
0.0001686
0.0001686
0
0.0001687
0.0001686
0.0001466
0.0001466
0
0.0001467
0.0001466
0.0001246
0.0001246
0
0.0001247
0.0001246
9.78e-05
9.77e-05
9.78e-05
9.77e-05
7.58e-05
7.57e-05
7.58e-05
7.58e-05
0
5.13e-05
5.13e-05
2
2.69e-05
2.69e-05
2
2.4e-06
2.4e-06
0
2.5e-06
2.4e-06
-2.44e-05
-2.44e-05
0
-2.45e-05
-2.44e-05
-4.89e-05
-4.89e-05
0
-4.88e-05
-4.89e-05
-7.09e-05
-7.09e-05
0
-7.08e-05
-7.09e-05
-9.78e-05
-9.77e-05
-9.78e-05
-9.77e-05
-0.0001222
-0.0001222
2
-0.0001441
-0.0001442
-0.0001442
1
-0.0001686
-0.0001686
0
-0.0001687
-0.0001686
-0.000193
-0.0001931
-0.0001931
0
-0.000193
-0.0002151
-0.000215
-0.0002151
-0.000215
-0.0002346
-0.0002346
0
-0.0002347
-0.0002346
-0.0002566
-0.0002566
2
-0.0002785
-0.0002786
-0.0002786
1
-0.0002957
-0.0002957
2
-0.0003153
-0.0003152
-0.0003153
-0.0003152
-0.0003324
-0.0003323
-0.0003324
-0.0003323
-0.0003495
-0.0003495
0
-0.0003494
-0.0003495
-0.0003666
-0.0003665
-0.0003666
-0.0003666
0
-0.0003787
-0.0003788
-0.0003788
1
-0.0003935
-0.0003934
-0.0003935
-0.0003934
-0.0004057
-0.0004057
0
-0.0004056
-0.0004057
-0.0004179
-0.0004179
1
-0.0004178
-0.0004253
-0.0004252
-0.0004252
1
-0.000435
-0.000435
2
-0.0004423
-0.0004424
-0.0004423
-0.0004423
0
-0.0004497
-0.0004496
-0.0004497
-0.0004496
-0.0004546
-0.0004545
-0.0004546
-0.0004545
-0.000457
-0.000457
2
-0.0004594
-0.0004595
-0.0004594
-0.0004594
0
-0.0004619
-0.0004619
0
-0.0004618
-0.0004619
-0.0004595
-0.0004594
-0.0004594
0
-0.0004595
-0.0004618
-0.0004619
-0.0004619
1
-0.000457
-0.0004569
-0.000457
-0.000457
0
-0.0004546
-0.0004545
-0.0004546
-0.0004545
-0.0004497
-0.0004496
-0.0004497
-0.0004496
-0.0004424
-0.0004423
-0.0004423
1
-0.0004375
-0.0004374
-0.0004375
-0.0004374
-0.0004277
-0.0004276
-0.0004277
-0.0004277
0
-0.0004203
-0.0004203
1
-0.0004204
-0.0004105
-0.0004106
-0.0004106
0
-0.0004105
-0.0004008
-0.0004008
1
-0.0004007
-0.0003886
-0.0003886
0
-0.0003885
-0.0003886
-0.0003763
-0.0003764
-0.0003763
-0.0003764
-0.0003641
-0.0003641
1
-0.0003642
-0.0003519
-0.0003519
2
-0.0003348
-0.0003348
2
-0.0003226
-0.0003226
0
-0.0003225
-0.0003226
-0.0003079
-0.0003079
0
-0.000308
-0.0003079
-0.0002908
-0.0002908
2
-0.0002786
-0.0002786
2
0.0002004
0.0002004
2
0.0002443
0.0002444
0.0002444
1
0.0002297
0.0002297
2
0.0002102
0.0002102
0
0.0002101
0.0002102
0.000198
0.0001979
0.000198
0.0001979
0.0001784
0.0001784
2
0.0001637
0.0001638
0.0001637
0.0001637
0
0.0001491
0.0001491
0
0.000149
0.0001491
0.000132
0.0001319
0.000132
0.000132
0
0.0001173
0.0001173
2
0.0001002
0.0001002
2
8.79e-05
8.8e-05
8.8e-05
1
7.33e-05
7.33e-05
2
5.87e-05
5.86e-05
5.87e-05
5.86e-05
4.65e-05
4.64e-05
4.64e-05
0
4.65e-05
3.17e-05
3.18e-05
3.18e-05
0
3.17e-05
2.2e-05
2.2e-05
2
9.8e-06
9.8e-06
0
9.7e-06
9.8e-06
-2.4e-06
-2.5e-06
-2.4e-06
-2.5e-06
-1.22e-05
-1.22e-05
2
-2.2e-05
-2.2e-05
2
-3.18e-05
-3.18e-05
0
-3.17e-05
-3.18e-05
-3.91e-05
-3.91e-05
2
-4.64e-05
-4.65e-05
-4.64e-05
-4.64e-05
0
-5.38e-05
-5.38e-05
0
-5.37e-05
-5.38e-05
-6.11e-05
-6.11e-05
2
-6.59e-05
-6.6e-05
-6.6e-05
1
-7.09e-05
-7.08e-05
-7.09e-05
-7.09e-05
0
-7.57e-05
-7.58e-05
-7.57e-05
-7.58e-05
-7.82e-05
-7.82e-05
2
-8.31e-05
-8.31e-05
2
-8.3e-05
-8.31e-05
-8.31e-05
1
-8.8e-05
-8.8e-05
0
-8.79e-05
-8.8e-05
-8.56e-05
-8.55e-05
-8.55e-05
0
-8.56e-05
-9.04e-05
-9.04e-05
2
-8.8e-05
-8.8e-05
1
-8.79e-05
-8.8e-05
-8.8e-05
1
-8.79e-05
-8.8e-05
-8.8e-05
2
-8.55e-05
-8.55e-05
0
-8.56e-05
-8.55e-05
-8.55e-05
1
-8.56e-05
-8.55e-05
-8.07e-05
-8.06e-05
-8.07e-05
-8.06e-05
-8.06e-05
0
-8.07e-05
-8.06e-05
-8.07e-05
-7.82e-05
-7.82e-05
2
-7.33e-05
-7.33e-05
2
-7.09e-05
-7.09e-05
0
-7.08e-05
-7.09e-05
-6.84e-05
-6.85e-05
-6.84e-05
-6.84e-05
0
-0.0004057
-0.0004057
0
-0.0004056
-0.0004057
0
0
262
0.0005621
0.000562
0.0005621
0.0005621
0
9.29e-05
9.28e-05
9.29e-05
9.28e-05
9.54e-05
9.53e-05
9.53e-05
1
0.0001026
0.0001027
0.0001026
0.0001026
0
0.0001076
0.0001075
0.0001075
1
0.0001125
0.0001124
0.0001124
1
0.0001149
0.0001148
0.0001149
0.0001148
0.0001173
0.0001173
2
0.0001222
0.0001222
2
0.0001246
0.0001247
0.0001246
0.0001246
0
0.0001271
0.0001271
1
0.000127
0.0001271
0.0001271
2
0.000127
0.0001271
0.0001271
1
0.000127
0.0001271
0.0001271
1
0.000127
0.0001271
0.0001271
1
0.0001246
0.0001246
0
0.0001247
0.0001246
0.0001246
0
0.0001247
0.0001246
0.0001246
0
0.0001173
0.0001173
0
0.0001174
0.0001173
0.0001148
0.0001149
0.0001148
0.0001149
0.0001075
0.0001075
0
0.0001076
0.0001075
0.0001026
0.0001027
0.0001026
0.0001027
9.28e-05
9.29e-05
9.28e-05
9.29e-05
8.55e-05
8.56e-05
8.55e-05
8.55e-05
0
7.58e-05
7.58e-05
0
7.57e-05
7.58e-05
6.6e-05
6.59e-05
6.6e-05
6.6e-05
0
5.13e-05
5.13e-05
0
5.14e-05
5.13e-05
3.91e-05
3.91e-05
2
2.69e-05
2.68e-05
2.69e-05
2.69e-05
0
9.8e-06
9.8e-06
0
9.7e-06
9.8e-06
-7.3e-06
-7.4e-06
-7.3e-06
-7.3e-06
0
-2.45e-05
-2.44e-05
-2.44e-05
0
-2.45e-05
-4.4e-05
-4.39e-05
-4.4e-05
-4.4e-05
0
-6.36e-05
-6.35e-05
-6.35e-05
0
-6.36e-05
-8.55e-05
-8.55e-05
0
-8.56e-05
-8.55e-05
-0.0001051
-0.0001051
1
-0.000105
-0.0001296
-0.0001295
-0.0001295
1
-0.0001515
-0.0001516
-0.0001515
-0.0001515
0
-0.0001784
-0.0001784
2
-0.0002028
-0.0002028
0
-0.0002029
-0.0002028
-0.0002273
-0.0002273
0
-0.0002272
-0.0002273
-0.0002542
-0.0002541
-0.0002542
-0.0002541
-0.0002835
-0.0002835
1
-0.0002834
-0.0003104
-0.0003104
0
-0.0003103
-0.0003104
-0.0003372
-0.0003373
-0.0003372
-0.0003373
-0.0003665
-0.0003666
-0.0003666
0
-0.0003665
-0.0003935
-0.0003934
-0.0003935
-0.0003934
0.0001026
0.0001026
0
0.0001027
0.0001026
0.0004521
0.0004521
2
0.000479
0.000479
2
0.0005107
0.0005108
0.0005107
0.0005108
0.0005352
0.0005352
0
0.0005351
0.0005352
0.0005645
0.0005646
0.0005645
0.0005645
0
0.0005914
0.0005914
2
0.0006183
0.0006182
0.0006183
0.0006183
0
0.0006427
0.0006427
0
0.0006428
0.0006427
0.0006696
0.0006696
2
0.0006916
0.0006916
1
0.0006915
0.0007136
0.0007136
2
0.0007356
0.0007356
0
0.0007355
0.0007356
0.0007552
0.0007551
0.0007551
0
0.0007552
0.0007722
0.0007722
0
0.0007723
0.0007722
0.0007918
0.0007918
2
0.0008064
0.0008065
0.0008064
0.0008065
0.0008186
0.0008187
0.0008187
0
0.0008186
0.0008309
0.0008309
2
0.0008407
0.0008406
0.0008407
0.0008407
0
0.0008504
0.0008504
0
0.0008505
0.0008504
0.0008554
0.0008553
0.0008553
1
0.0008578
0.0008578
0
0.0008577
0.0008578
0.0008602
0.0008603
0.0008602
0.0008602
4
0.0008578
0.0008578
1
0.0008577
0.0008505
0.0008504
0.0008504
0
0.0008505
0.0008431
0.0008431
2
0.0008358
0.0008358
1
0.0008357
0.0008211
0.0008212
0.0008211
0.0008211
0
0.0008064
0.0008065
0.0008064
0.0008065
0.0007918
0.0007918
1
0.0007917
0.0007723
0.0007722
0.0007723
0.0007722
0.0007502
0.0007503
0.0007502
0.0007503
0.0007258
0.0007258
2
0.0007014
0.0007013
0.0007014
0.0007014
0
0.000672
0.0006721
0.000672
0.0006721
0.0006427
0.0006427
2
0.000611
0.0006109
0.000611
0.0006109
0.0005767
0.0005768
0.0005767
0.0005768
0.00054
0.0005401
0.0005401
1
0.0005034
0.0005034
1
0.0005035
0.0004667
0.0004668
0.0004667
0.0004668
0.0004228
0.0004228
0
0.0004227
0.0004228
0.0003812
0.0003813
0.0003812
0.0003812
0
0.0003397
0.0003397
2
0.0002932
0.0002933
0.0002933
0
0.0002932
0.0002493
0.0002492
0.0002493
0.0002493
0
0.0002028
0.0002028
0
0.0002029
0.0002028
0.000154
0.0001539
0.000154
0.000154
0
0.0001075
0.0001075
1
0.0001076
6.11e-05
6.1e-05
6.11e-05
6.11e-05
0
1.23e-05
1.22e-05
1.22e-05
1
-3.91e-05
-3.91e-05
2
-8.55e-05
-8.56e-05
-8.55e-05
-8.55e-05
0
-0.000132
-0.0001319
-0.000132
-0.000132
0
-0.0001833
-0.0001832
-0.0001833
-0.0001833
0
-0.0002273
-0.0002273
0
-0.0002272
-0.0002273
-0.0002762
-0.0002761
-0.0002762
-0.0002761
-0.0003226
-0.0003226
0
-0.0003225
-0.0003226
-0.0003666
-0.0003666
0
-0.0003665
-0.0003666
-0.0004106
-0.0004105
-0.0004106
-0.0004105
-0.0004546
-0.0004545
-0.0004546
-0.0004545
-0.0004961
-0.0004961
2
-0.0005352
-0.0005352
0
-0.0005351
-0.0005352
-0.0005743
-0.0005743
2
-0.0006085
-0.0006085
2
-0.0006476
-0.0006476
2
-0.000677
-0.0006769
-0.0006769
0
-0.000677
-0.0007087
-0.0007087
2
-0.0007404
-0.0007405
-0.0007405
0
-0.0007404
-0.0007649
-0.0007649
0
-0.000765
-0.0007649
-0.0007893
-0.0007894
-0.0007893
-0.0007893
0
-0.0008114
-0.0008113
-0.0008114
-0.0008113
-0.0008333
-0.0008334
-0.0008333
-0.0008333
0
-0.000848
-0.000848
2
-0.0008651
-0.0008651
2
-0.0008773
-0.0008774
-0.0008773
-0.0008773
0
-0.0008871
-0.0008871
2
-0.0008969
-0.0008968
-0.0008969
-0.0008969
0
-0.0008993
-0.0008993
1
-0.0008994
-0.0009042
-0.0009042
6
-0.0009017
-0.0009018
-0.0009018
0
-0.0009017
-0.0008993
-0.0008993
0
-0.0008994
-0.0008993
-0.000892
-0.0008919
-0.000892
-0.000892
0
-0.0008822
-0.0008822
1
-0.0008823
-0.0008724
-0.0008724
0
-0.0008725
-0.0008724
-0.0008602
-0.0008602
2
-0.0008432
-0.0008431
-0.0008431
1
-0.0008284
-0.0008285
-0.0008284
-0.0008285
-0.0008089
-0.0008089
1
-0.0008088
-0.0007894
-0.0007893
-0.0007894
-0.0007893
-0.0007649
-0.0007649
0
-0.000765
-0.0007649
-0.0007453
-0.0007454
-0.0007453
-0.0007454
-0.0007185
-0.0007184
-0.0007185
-0.0007185
0
-0.0006916
-0.0006916
2
-0.0006647
-0.0006647
2
-0.0006378
-0.0006379
-0.0006378
-0.0006378
0
-0.0006085
-0.0006085
2
-0.0005768
-0.0005767
-0.0005767
0
-0.0005768
-0.0005474
-0.0005474
2
0.0003959
0.0003959
2
0.0004838
0.0004839
0.0004839
0
0.0004838
0.0004546
0.0004545
0.0004546
0.0004545
0.0004204
0.0004203
0.0004203
0
0.0004204
0.0003885
0.0003886
0.0003885
0.0003886
0.0003592
0.0003593
0.0003592
0.0003593
0.000325
0.000325
1
0.0003251
