# Pulseq sequence file
# Created by PyPulseq

[VERSION]
major 1
minor 4
revision 0

[DEFINITIONS]
AdcRasterTime 1e-07 
BlockDurationRaster 1e-05 
GradientRasterTime 1e-05 
RadiofrequencyRasterTime 1e-06 

# Format of blocks:
# NUM DUR RF  GX  GY  GZ  ADC  EXT
[BLOCKS]
   1 413   1   0   0   1  0  0
   2  18   0   0   0   2  0  0
   3 8196   0   0   0   0  1  0
   4 91373   0   0   0   0  0  0
   5 416   2   0   0   3  0  0
   6  66   0   0   0   4  0  0
   7  34   0   5   6   0  0  0
   8  48   0   7   0   0  2  0
   9  48   0   9   8   0  0  0
  10  48   0   7   0   0  2  0
  11  48   0   9   8   0  0  0
  12  48   0   7   0   0  2  0
  13  48   0   9   8   0  0  0
  14  48   0   7   0   0  2  0
  15  48   0   9   8   0  0  0
  16  48   0   7   0   0  2  0
  17  48   0   9   8   0  0  0
  18  48   0   7   0   0  2  0
  19  48   0   9   8   0  0  0
  20  48   0   7   0   0  2  0
  21  48   0   9   8   0  0  0
  22  48   0   7   0   0  2  0
  23  48   0   9   8   0  0  0
  24  48   0   7   0   0  2  0
  25  48   0   9   8   0  0  0
  26  48   0   7   0   0  2  0
  27  48   0   9   8   0  0  0
  28  48   0   7   0   0  2  0
  29  48   0   9   8   0  0  0
  30  48   0   7   0   0  2  0
  31  48   0   9   0   0  0  0
  32 13848   0   0   0   0  0  0
  33  48   0   7   0   0  2  0
  34  48   0   9  10   0  0  0
  35  48   0   7   0   0  2  0
  36  48   0   9  10   0  0  0
  37  48   0   7   0   0  2  0
  38  48   0   9  10   0  0  0
  39  48   0   7   0   0  2  0
  40  48   0   9  10   0  0  0
  41  48   0   7   0   0  2  0
  42  48   0   9  10   0  0  0
  43  48   0   7   0   0  2  0
  44  48   0   9  10   0  0  0
  45  48   0   7   0   0  2  0
  46  48   0   9  10   0  0  0
  47  48   0   7   0   0  2  0
  48  48   0   9  10   0  0  0
  49  48   0   7   0   0  2  0
  50  48   0   9  10   0  0  0
  51  48   0   7   0   0  2  0
  52  48   0   9  10   0  0  0
  53  48   0   7   0   0  2  0
  54  48   0   9  10   0  0  0
  55  48   0   7   0   0  2  0
  56  48   0   9   0   0  0  0
  57 13848   0   0   0   0  0  0
  58  48   0   7   0   0  2  0
  59  48   0   9   8   0  0  0
  60  48   0   7   0   0  2  0
  61  48   0   9   8   0  0  0
  62  48   0   7   0   0  2  0
  63  48   0   9   8   0  0  0
  64  48   0   7   0   0  2  0
  65  48   0   9   8   0  0  0
  66  48   0   7   0   0  2  0
  67  48   0   9   8   0  0  0
  68  48   0   7   0   0  2  0
  69  48   0   9   8   0  0  0
  70  48   0   7   0   0  2  0
  71  48   0   9   8   0  0  0
  72  48   0   7   0   0  2  0
  73  48   0   9   8   0  0  0
  74  48   0   7   0   0  2  0
  75  48   0   9   8   0  0  0
  76  48   0   7   0   0  2  0
  77  48   0   9   8   0  0  0
  78  48   0   7   0   0  2  0
  79  48   0   9   8   0  0  0
  80  48   0   7   0   0  2  0
  81 13897   0   0   0   0  0  0
  82  48   0   7   7   7  0  0
  83 4436   0   0   0   0  0  0
  84 416   3   0   0   3  0  0
  85  66   0   0   0   4  0  0
  86  34   0   5   6   0  0  0
  87  48   0   7   0   0  2  0
  88  48   0   9   8   0  0  0
  89  48   0   7   0   0  2  0
  90  48   0   9   8   0  0  0
  91  48   0   7   0   0  2  0
  92  48   0   9   8   0  0  0
  93  48   0   7   0   0  2  0
  94  48   0   9   8   0  0  0
  95  48   0   7   0   0  2  0
  96  48   0   9   8   0  0  0
  97  48   0   7   0   0  2  0
  98  48   0   9   8   0  0  0
  99  48   0   7   0   0  2  0
 100  48   0   9   8   0  0  0
 101  48   0   7   0   0  2  0
 102  48   0   9   8   0  0  0
 103  48   0   7   0   0  2  0
 104  48   0   9   8   0  0  0
 105  48   0   7   0   0  2  0
 106  48   0   9   8   0  0  0
 107  48   0   7   0   0  2  0
 108  48   0   9   8   0  0  0
 109  48   0   7   0   0  2  0
 110  48   0   9   0   0  0  0
 111 13848   0   0   0   0  0  0
 112  48   0   7   0   0  2  0
 113  48   0   9  10   0  0  0
 114  48   0   7   0   0  2  0
 115  48   0   9  10   0  0  0
 116  48   0   7   0   0  2  0
 117  48   0   9  10   0  0  0
 118  48   0   7   0   0  2  0
 119  48   0   9  10   0  0  0
 120  48   0   7   0   0  2  0
 121  48   0   9  10   0  0  0
 122  48   0   7   0   0  2  0
 123  48   0   9  10   0  0  0
 124  48   0   7   0   0  2  0
 125  48   0   9  10   0  0  0
 126  48   0   7   0   0  2  0
 127  48   0   9  10   0  0  0
 128  48   0   7   0   0  2  0
 129  48   0   9  10   0  0  0
 130  48   0   7   0   0  2  0
 131  48   0   9  10   0  0  0
 132  48   0   7   0   0  2  0
 133  48   0   9  10   0  0  0
 134  48   0   7   0   0  2  0
 135  48   0   9   0   0  0  0
 136 13848   0   0   0   0  0  0
 137  48   0   7   0   0  2  0
 138  48   0   9   8   0  0  0
 139  48   0   7   0   0  2  0
 140  48   0   9   8   0  0  0
 141  48   0   7   0   0  2  0
 142  48   0   9   8   0  0  0
 143  48   0   7   0   0  2  0
 144  48   0   9   8   0  0  0
 145  48   0   7   0   0  2  0
 146  48   0   9   8   0  0  0
 147  48   0   7   0   0  2  0
 148  48   0   9   8   0  0  0
 149  48   0   7   0   0  2  0
 150  48   0   9   8   0  0  0
 151  48   0   7   0   0  2  0
 152  48   0   9   8   0  0  0
 153  48   0   7   0   0  2  0
 154  48   0   9   8   0  0  0
 155  48   0   7   0   0  2  0
 156  48   0   9   8   0  0  0
 157  48   0   7   0   0  2  0
 158  48   0   9   8   0  0  0
 159  48   0   7   0   0  2  0
 160 13897   0   0   0   0  0  0
 161  48   0   7   7   7  0  0
 162 4436   0   0   0   0  0  0
 163 416   4   0   0   3  0  0
 164  66   0   0   0   4  0  0
 165  34   0   5   6   0  0  0
 166  48   0   7   0   0  2  0
 167  48   0   9   8   0  0  0
 168  48   0   7   0   0  2  0
 169  48   0   9   8   0  0  0
 170  48   0   7   0   0  2  0
 171  48   0   9   8   0  0  0
 172  48   0   7   0   0  2  0
 173  48   0   9   8   0  0  0
 174  48   0   7   0   0  2  0
 175  48   0   9   8   0  0  0
 176  48   0   7   0   0  2  0
 177  48   0   9   8   0  0  0
 178  48   0   7   0   0  2  0
 179  48   0   9   8   0  0  0
 180  48   0   7   0   0  2  0
 181  48   0   9   8   0  0  0
 182  48   0   7   0   0  2  0
 183  48   0   9   8   0  0  0
 184  48   0   7   0   0  2  0
 185  48   0   9   8   0  0  0
 186  48   0   7   0   0  2  0
 187  48   0   9   8   0  0  0
 188  48   0   7   0   0  2  0
 189  48   0   9   0   0  0  0
 190 13848   0   0   0   0  0  0
 191  48   0   7   0   0  2  0
 192  48   0   9  10   0  0  0
 193  48   0   7   0   0  2  0
 194  48   0   9  10   0  0  0
 195  48   0   7   0   0  2  0
 196  48   0   9  10   0  0  0
 197  48   0   7   0   0  2  0
 198  48   0   9  10   0  0  0
 199  48   0   7   0   0  2  0
 200  48   0   9  10   0  0  0
 201  48   0   7   0   0  2  0
 202  48   0   9  10   0  0  0
 203  48   0   7   0   0  2  0
 204  48   0   9  10   0  0  0
 205  48   0   7   0   0  2  0
 206  48   0   9  10   0  0  0
 207  48   0   7   0   0  2  0
 208  48   0   9  10   0  0  0
 209  48   0   7   0   0  2  0
 210  48   0   9  10   0  0  0
 211  48   0   7   0   0  2  0
 212  48   0   9  10   0  0  0
 213  48   0   7   0   0  2  0
 214  48   0   9   0   0  0  0
 215 13848   0   0   0   0  0  0
 216  48   0   7   0   0  2  0
 217  48   0   9   8   0  0  0
 218  48   0   7   0   0  2  0
 219  48   0   9   8   0  0  0
 220  48   0   7   0   0  2  0
 221  48   0   9   8   0  0  0
 222  48   0   7   0   0  2  0
 223  48   0   9   8   0  0  0
 224  48   0   7   0   0  2  0
 225  48   0   9   8   0  0  0
 226  48   0   7   0   0  2  0
 227  48   0   9   8   0  0  0
 228  48   0   7   0   0  2  0
 229  48   0   9   8   0  0  0
 230  48   0   7   0   0  2  0
 231  48   0   9   8   0  0  0
 232  48   0   7   0   0  2  0
 233  48   0   9   8   0  0  0
 234  48   0   7   0   0  2  0
 235  48   0   9   8   0  0  0
 236  48   0   7   0   0  2  0
 237  48   0   9   8   0  0  0
 238  48   0   7   0   0  2  0
 239 13897   0   0   0   0  0  0
 240  48   0   7   7   7  0  0
 241 4436   0   0   0   0  0  0
 242 416   5   0   0   3  0  0
 243  66   0   0   0   4  0  0
 244  34   0   5   6   0  0  0
 245  48   0   7   0   0  2  0
 246  48   0   9   8   0  0  0
 247  48   0   7   0   0  2  0
 248  48   0   9   8   0  0  0
 249  48   0   7   0   0  2  0
 250  48   0   9   8   0  0  0
 251  48   0   7   0   0  2  0
 252  48   0   9   8   0  0  0
 253  48   0   7   0   0  2  0
 254  48   0   9   8   0  0  0
 255  48   0   7   0   0  2  0
 256  48   0   9   8   0  0  0
 257  48   0   7   0   0  2  0
 258  48   0   9   8   0  0  0
 259  48   0   7   0   0  2  0
 260  48   0   9   8   0  0  0
 261  48   0   7   0   0  2  0
 262  48   0   9   8   0  0  0
 263  48   0   7   0   0  2  0
 264  48   0   9   8   0  0  0
 265  48   0   7   0   0  2  0
 266  48   0   9   8   0  0  0
 267  48   0   7   0   0  2  0
 268  48   0   9   0   0  0  0
 269 13848   0   0   0   0  0  0
 270  48   0   7   0   0  2  0
 271  48   0   9  10   0  0  0
 272  48   0   7   0   0  2  0
 273  48   0   9  10   0  0  0
 274  48   0   7   0   0  2  0
 275  48   0   9  10   0  0  0
 276  48   0   7   0   0  2  0
 277  48   0   9  10   0  0  0
 278  48   0   7   0   0  2  0
 279  48   0   9  10   0  0  0
 280  48   0   7   0   0  2  0
 281  48   0   9  10   0  0  0
 282  48   0   7   0   0  2  0
 283  48   0   9  10   0  0  0
 284  48   0   7   0   0  2  0
 285  48   0   9  10   0  0  0
 286  48   0   7   0   0  2  0
 287  48   0   9  10   0  0  0
 288  48   0   7   0   0  2  0
 289  48   0   9  10   0  0  0
 290  48   0   7   0   0  2  0
 291  48   0   9  10   0  0  0
 292  48   0   7   0   0  2  0
 293  48   0   9   0   0  0  0
 294 13848   0   0   0   0  0  0
 295  48   0   7   0   0  2  0
 296  48   0   9   8   0  0  0
 297  48   0   7   0   0  2  0
 298  48   0   9   8   0  0  0
 299  48   0   7   0   0  2  0
 300  48   0   9   8   0  0  0
 301  48   0   7   0   0  2  0
 302  48   0   9   8   0  0  0
 303  48   0   7   0   0  2  0
 304  48   0   9   8   0  0  0
 305  48   0   7   0   0  2  0
 306  48   0   9   8   0  0  0
 307  48   0   7   0   0  2  0
 308  48   0   9   8   0  0  0
 309  48   0   7   0   0  2  0
 310  48   0   9   8   0  0  0
 311  48   0   7   0   0  2  0
 312  48   0   9   8   0  0  0
 313  48   0   7   0   0  2  0
[RF]
1      7.69192 1 2 0 100 4166.67 0
2      276.909 1 2 0 100 -7500 0
3      276.909 1 2 0 100 -6500 0
4      276.909 1 2 0 100 -5500 0
5      276.909 1 2 0 100 -4500 0
6      276.909 1 2 0 100 -3500 0
7      276.909 1 2 0 100 -2500 0
8      276.909 1 2 0 100 -1500 0
9      276.909 1 2 0 100 -500 0
10      276.909 1 2 0 100 500 0
11      276.909 1 2 0 100 1500 0
12      276.909 1 2 0 100 2500 0
13      276.909 1 2 0 100 3500 0
14      276.909 1 2 0 100 4500 0
15      276.909 1 2 0 100 5500 0
16      276.909 1 2 0 100 6500 0
17      276.909 1 2 0 100 7500 0
18      125.931 4 5 0 100 50 0
19      125.931 4 6 0 100 50 0
20      125.931 4 7 0 100 50 0
21      125.931 4 8 0 100 50 0
22      125.931 4 9 0 100 50 0
23      125.931 4 10 0 100 50 0
24      125.931 4 11 0 100 50 0
25      125.931 4 12 0 100 50 0
26      125.931 4 13 0 100 50 0
27      125.931 4 14 0 100 50 0
28      125.931 4 15 0 100 50 0
29      125.931 4 16 0 100 50 0
30      125.931 4 17 0 100 50 0
31      125.931 4 18 0 100 50 0
32      125.931 4 19 0 100 50 0
33      125.931 4 20 0 100 50 0

# Format of arbitrary gradients:
#   time_shape_id of 0 means default timing (stepping with grad_raster starting at 1/2 of grad_raster)
# id amplitude amp_shape_id time_shape_id delay
# ..      Hz/m       ..         ..          us
[GRADIENTS]
11       146684 3 0 100

# Format of trapezoid gradients:
# id amplitude rise flat fall delay
# ..      Hz/m   us   us   us    us
[TRAP]
 1      4166.67  10 4000  10  90
 2     -92824.1  90    0  90   0
 3      66666.7  60 4000  60  40
 4      -410101 330    0 330   0
 5      -209150 170    0 170   0
 6      -132576 110    0 110   0
 7       296296 240    0 240   0
 8      69444.4  60    0  60   0
 9      -296296 240    0 240   0
10     -69444.4  60    0  60   0
12      -195313 160    0 160   0

# Format of ADC events:
# id num dwell delay freq phase
# ..  ..    ns    us   Hz   rad
[ADC]
1 2048 40000 20 0 0
2 48 7000 72 0 0
3 48 7000 72 50 0

# Sequence Shapes
[SHAPES]

shape_id 1
num_samples 4000
0.000250062516
0.000750560453
0.0012515521
0.00175303326
0.00225499973
0.00275744727
0.00326037168
0.00376376871
0.00426763411
0.00477196365
0.00527675306
0.00578199807
0.0062876944
0.00679383778
0.00730042392
0.00780744851
0.00831490725
0.00882279582
0.00933110989
0.00983984515
0.0103489972
0.0108585618
0.0113685346
0.0118789111
0.012389687
0.0129008579
0.0134124195
0.0139243673
0.014436697
0.0149494042
0.0154624843
0.0159759331
0.016489746
0.0170039187
0.0175184466
0.0180333254
0.0185485506
0.0190641177
0.0195800222
0.0200962597
0.0206128256
0.0211297156
0.0216469249
0.0221644493
0.022682284
0.0232004247
0.0237188667
0.0242376056
0.0247566368
0.0252759557
0.0257955578
0.0263154385
0.0268355933
0.0273560175
0.0278767066
0.0283976559
0.028918861
0.0294403171
0.0299620197
0.030483964
0.0310061456
0.0315285598
0.0320512019
0.0325740673
0.0330971513
0.0336204493
0.0341439566
0.0346676685
0.0351915804
0.0357156876
0.0362399853
0.0367644689
0.0372891337
0.0378139749
0.0383389879
0.0388641679
0.0393895102
0.03991501
0.0404406627
0.0409664634
0.0414924075
0.0420184901
0.0425447065
0.043071052
0.0435975216
0.0441241108
0.0446508146
0.0451776284
0.0457045472
0.0462315663
0.0467586808
0.047285886
0.0478131771
0.0483405491
0.0488679974
0.0493955169
0.049923103
0.0504507507
0.0509784552
0.0515062116
0.0520340151
0.0525618608
0.0530897438
0.0536176592
0.0541456022
0.0546735679
0.0552015513
0.0557295477
0.0562575519
0.0567855593
0.0573135647
0.0578415634
0.0583695504
0.0588975207
0.0594254695
0.0599533918
0.0604812826
0.061009137
0.06153695
0.0620647168
0.0625924322
0.0631200914
0.0636476894
0.0641752212
0.0647026819
0.0652300664
0.0657573697
0.0662845869
0.066811713
0.0673387429
0.0678656717
0.0683924943
0.0689192058
0.0694458011
0.0699722751
0.070498623
0.0710248396
0.0715509198
0.0720768588
0.0726026514
0.0731282925
0.0736537772
0.0741791003
0.0747042569
0.0752292418
0.07575405
0.0762786764
0.076803116
0.0773273637
0.0778514143
0.0783752629
0.0788989043
0.0794223334
0.0799455452
0.0804685346
0.0809912964
0.0815138256
0.082036117
0.0825581656
0.0830799662
0.0836015137
0.084122803
0.084643829
0.0851645865
0.0856850705
0.0862052758
0.0867251972
0.0872448297
0.0877641681
0.0882832072
0.088801942
0.0893203672
0.0898384778
0.0903562685
0.0908737342
0.0913908698
0.0919076701
0.09242413
0.0929402442
0.0934560076
0.0939714151
0.0944864615
0.0950011416
0.0955154502
0.0960293822
0.0965429323
0.0970560954
0.0975688664
0.09808124
0.098593211
0.0991047743
0.0996159247
0.100126657
0.100636966
0.101146846
0.101656293
0.102165301
0.102673864
0.103181979
0.103689639
0.104196839
0.104703574
0.105209839
0.105715629
0.106220938
0.106725761
0.107230094
0.10773393
0.108237265
0.108740093
0.109242409
0.109744209
0.110245486
0.110746235
0.111246452
0.111746131
0.112245266
0.112743854
0.113241887
0.113739362
0.114236273
0.114732614
0.115228381
0.115723568
0.11621817
0.116712182
0.117205599
0.117698414
0.118190624
0.118682223
0.119173205
0.119663566
0.1201533
0.120642402
0.121130867
0.121618689
0.122105863
0.122592384
0.123078247
0.123563447
0.124047978
0.124531834
0.125015012
0.125497506
0.125979309
0.126460418
0.126940827
0.127420531
0.127899524
0.128377801
0.128855357
0.129332187
0.129808286
0.130283647
0.130758267
0.13123214
0.131705261
0.132177623
0.132649223
0.133120055
0.133590114
0.134059394
0.134527891
0.134995599
0.135462512
0.135928626
0.136393936
0.136858436
0.137322121
0.137784985
0.138247024
0.138708233
0.139168606
0.139628138
0.140086823
0.140544657
0.141001635
0.14145775
0.141912999
0.142367375
0.142820874
0.14327349
0.143725219
0.144176054
0.144625992
0.145075025
0.145523151
0.145970362
0.146416655
0.146862024
0.147306463
0.147749968
0.148192533
0.148634154
0.149074824
0.14951454
0.149953295
0.150391085
0.150827904
0.151263748
0.15169861
0.152132487
0.152565372
0.152997261
0.153428149
0.15385803
0.154286899
0.154714752
0.155141582
0.155567386
0.155992157
0.15641589
0.156838582
0.157260225
0.157680816
0.158100349
0.15851882
0.158936222
0.159352551
0.159767802
0.16018197
0.160595049
0.161007035
0.161417922
0.161827706
0.162236381
0.162643942
0.163050384
0.163455703
0.163859893
0.164262948
0.164664865
0.165065637
0.165465261
0.16586373
0.16626104
0.166657185
0.167052162
0.167445964
0.167838587
0.168230025
0.168620275
0.169009329
0.169397185
0.169783836
0.170169278
0.170553506
0.170936514
0.171318298
0.171698853
0.172078174
0.172456255
0.172833092
0.173208681
0.173583015
0.17395609
0.174327901
0.174698444
0.175067712
0.175435702
0.175802409
0.176167826
0.176531951
0.176894777
0.177256299
0.177616514
0.177975415
0.178332999
0.17868926
0.179044193
0.179397793
0.179750056
0.180100977
0.180450551
0.180798773
0.181145638
0.181491141
0.181835278
0.182178044
0.182519433
0.182859442
0.183198065
0.183535297
0.183871134
0.184205571
0.184538604
0.184870226
0.185200434
0.185529223
0.185856588
0.186182524
0.186507027
0.186830092
0.187151714
0.187471888
0.18779061
0.188107875
0.188423678
0.188738015
0.18905088
0.18936227
0.189672179
0.189980603
0.190287538
0.190592977
0.190896918
0.191199355
0.191500283
0.191799699
0.192097596
0.192393972
0.19268882
0.192982137
0.193273918
0.193564158
0.193852853
0.194139998
0.194425589
0.194709621
0.194992089
0.19527299
0.195552317
0.195830068
0.196106237
0.19638082
0.196653812
0.196925209
0.197195006
0.1974632
0.197729784
0.197994756
0.19825811
0.198519842
0.198779948
0.199038423
0.199295263
0.199550463
0.199804019
0.200055926
0.200306181
0.200554778
0.200801714
0.201046983
0.201290583
0.201532507
0.201772753
0.202011315
0.202248189
0.202483371
0.202716857
0.202948643
0.203178723
0.203407094
0.203633752
0.203858692
0.20408191
0.204303401
0.204523162
0.204741188
0.204957476
0.20517202
0.205384817
0.205595862
0.205805151
0.206012681
0.206218446
0.206422443
0.206624668
0.206825116
0.207023784
0.207220666
0.20741576
0.207609061
0.207800565
0.207990267
0.208178164
0.208364252
0.208548527
0.208730984
0.20891162
0.20909043
0.209267411
0.209442558
0.209615868
0.209787336
0.209956959
0.210124732
0.210290652
0.210454715
0.210616917
0.210777253
0.21093572
0.211092314
0.211247032
0.211399868
0.21155082
0.211699884
0.211847055
0.21199233
0.212135704
0.212277175
0.212416739
0.21255439
0.212690127
0.212823944
0.212955839
0.213085807
0.213213845
0.213339949
0.213464115
0.213586339
0.213706619
0.213824949
0.213941327
0.214055748
0.21416821
0.214278708
0.214387239
0.214493799
0.214598385
0.214700992
0.214801618
0.214900259
0.214996911
0.21509157
0.215184234
0.215274898
0.215363559
0.215450214
0.215534858
0.21561749
0.215698104
0.215776698
0.215853267
0.21592781
0.216000322
0.216070799
0.216139239
0.216205638
0.216269993
0.2163323
0.216392555
0.216450756
0.2165069
0.216560982
0.216613
0.21666295
0.216710828
0.216756633
0.21680036
0.216842006
0.216881568
0.216919042
0.216954426
0.216987716
0.21701891
0.217048003
0.217074993
0.217099876
0.217122649
0.21714331
0.217161855
0.217178281
0.217192585
0.217204764
0.217214814
0.217222734
0.217228519
0.217232166
0.217233673
0.217233037
0.217230254
0.217225322
0.217218238
0.217208998
0.2171976
0.217184041
0.217168318
0.217150428
0.217130368
0.217108135
0.217083726
0.217057139
0.217028371
0.216997419
0.216964279
0.21692895
0.216891429
0.216851712
0.216809796
0.216765681
0.216719361
0.216670836
0.216620101
0.216567155
0.216511994
0.216454616
0.216395019
0.216333199
0.216269155
0.216202882
0.21613438
0.216063645
0.215990675
0.215915467
0.215838018
0.215758327
0.21567639
0.215592205
0.21550577
0.215417082
0.215326138
0.215232937
0.215137476
0.215039751
0.214939762
0.214837505
0.214732979
0.21462618
0.214517107
0.214405757
0.214292128
0.214176217
0.214058022
0.213937542
0.213814773
0.213689713
0.213562361
0.213432714
0.213300769
0.213166525
0.21302998
0.21289113
0.212749975
0.212606512
0.212460738
0.212312653
0.212162253
0.212009536
0.211854501
0.211697146
0.211537468
0.211375465
0.211211136
0.211044478
0.21087549
0.210704169
0.210530514
0.210354522
0.210176192
0.209995522
0.20981251
0.209627154
0.209439452
0.209249402
0.209057003
0.208862253
0.20866515
0.208465692
0.208263877
0.208059704
0.207853171
0.207644276
0.207433017
0.207219394
0.207003403
0.206785044
0.206564315
0.206341214
0.20611574
0.205887891
0.205657665
0.205425061
0.205190077
0.204952712
0.204712964
0.204470832
0.204226315
0.20397941
0.203730116
0.203478432
0.203224357
0.202967889
0.202709026
0.202447768
0.202184112
0.201918059
0.201649605
0.20137875
0.201105493
0.200829832
0.200551766
0.200271294
0.199988415
0.199703127
0.199415429
0.199125319
0.198832798
0.198537863
0.198240514
0.197940749
0.197638567
0.197333967
0.197026948
0.196717509
0.196405649
0.196091367
0.195774662
0.195455533
0.195133978
0.194809997
0.19448359
0.194154754
0.193823489
0.193489795
0.19315367
0.192815113
0.192474123
0.192130701
0.191784844
0.191436552
0.191085825
0.190732661
0.19037706
0.190019021
0.189658543
0.189295626
0.188930268
0.18856247
0.18819223
0.187819549
0.187444424
0.187066856
0.186686844
0.186304387
0.185919486
0.185532138
0.185142345
0.184750105
0.184355417
0.183958282
0.183558699
0.183156667
0.182752186
0.182345256
0.181935875
0.181524045
0.181109764
0.180693032
0.180273848
0.179852213
0.179428126
0.179001587
0.178572596
0.178141151
0.177707254
0.177270904
0.1768321
0.176390842
0.175947131
0.175500966
0.175052347
0.174601274
0.174147747
0.173691765
0.173233329
0.172772439
0.172309094
0.171843294
0.17137504
0.170904332
0.170431169
0.169955552
0.16947748
0.168996954
0.168513974
0.16802854
0.167540652
0.167050311
0.166557515
0.166062267
0.165564565
0.16506441
0.164561802
0.164056742
0.16354923
0.163039266
0.16252685
0.162011983
0.161494665
0.160974896
0.160452677
0.159928008
0.159400889
0.158871322
0.158339306
0.157804842
0.15726793
0.156728571
0.156186765
0.155642513
0.155095815
0.154546673
0.153995086
0.153441055
0.15288458
0.152325663
0.151764304
0.151200503
0.150634262
0.150065581
0.14949446
0.148920901
0.148344904
0.14776647
0.1471856
0.146602294
0.146016554
0.145428379
0.144837772
0.144244732
0.143649262
0.14305136
0.14245103
0.14184827
0.141243084
0.14063547
0.140025431
0.139412968
0.13879808
0.13818077
0.137561039
0.136938887
0.136314316
0.135687326
0.135057919
0.134426096
0.133791859
0.133155207
0.132516143
0.131874668
0.131230783
0.130584489
0.129935787
0.129284679
0.128631166
0.127975249
0.127316929
0.126656209
0.125993089
0.12532757
0.124659655
0.123989344
0.123316639
0.122641541
0.121964053
0.121284174
0.120601907
0.119917253
0.119230215
0.118540792
0.117848988
0.117154803
0.116458239
0.115759298
0.115057981
0.11435429
0.113648227
0.112939793
0.11222899
0.11151582
0.110800284
0.110082385
0.109362123
0.108639502
0.107914522
0.107187185
0.106457494
0.10572545
0.104991054
0.10425431
0.103515218
0.102773781
0.102030001
0.101283879
0.100535417
0.0997846186
0.0990314844
0.0982760166
0.0975182175
0.096758089
0.0959956333
0.0952308523
0.0944637483
0.0936943233
0.0929225795
0.092148519
0.0913721441
0.0905934568
0.0898124595
0.0890291543
0.0882435435
0.0874556293
0.0866654141
0.0858729
0.0850780895
0.0842809848
0.0834815884
0.0826799024
0.0818759294
0.0810696717
0.0802611317
0.0794503119
0.0786372147
0.0778218426
0.077004198
0.0761842834
0.0753621014
0.0745376544
0.0737109451
0.0728819759
0.0720507495
0.0712172684
0.0703815353
0.0695435528
0.0687033235
0.0678608501
0.0670161353
0.0661691817
0.0653199922
0.0644685693
0.0636149159
0.0627590346
0.0619009284
0.0610405999
0.0601780521
0.0593132876
0.0584463094
0.0575771203
0.0567057232
0.055832121
0.0549563166
0.054078313
0.0531981129
0.0523157196
0.0514311358
0.0505443646
0.049655409
0.048764272
0.0478709567
0.0469754661
0.0460778033
0.0451779713
0.0442759734
0.0433718126
0.042465492
0.0415570148
0.0406463842
0.0397336034
0.0388186755
0.0379016038
0.0369823915
0.0360610419
0.0351375583
0.0342119438
0.0332842019
0.0323543358
0.0314223489
0.0304882445
0.0295520261
0.0286136968
0.0276732603
0.0267307198
0.0257860788
0.0248393408
0.0238905091
0.0229395874
0.0219865791
0.0210314876
0.0200743166
0.0191150695
0.0181537499
0.0171903614
0.0162249076
0.015257392
0.0142878183
0.0133161902
0.0123425112
0.0113667851
0.0103890155
0.00940920618
0.00842736077
0.00744348302
0.00645757669
0.00546964554
0.00447969334
0.00348772388
0.00249374097
0.00149774844
0.000499750125
0.000500250125
0.00150224844
0.00250624093
0.0035122237
0.00452019283
0.00553014438
0.00654207443
0.00755597899
0.0085718541
0.00958969575
0.0106095
0.0116312627
0.0126549799
0.0136806475
0.0147082615
0.0157378177
0.0167693122
0.0178027407
0.0188380991
0.0198753833
0.0209145891
0.0219557124
0.0229987489
0.0240436945
0.025090545
0.026139296
0.0271899434
0.0282424828
0.0292969101
0.0303532209
0.0314114109
0.0324714757
0.0335334111
0.0345972127
0.0356628761
0.0367303969
0.0377997708
0.0388709932
0.0399440599
0.0410189663
0.042095708
0.0431742806
0.0442546794
0.0453369001
0.0464209381
0.0475067889
0.048594448
0.0496839107
0.0507751726
0.051868229
0.0529630753
0.0540597069
0.0551581192
0.0562583075
0.0573602672
0.0584639936
0.0595694821
0.0606767278
0.0617857261
0.0628964723
0.0640089617
0.0651231894
0.0662391506
0.0673568407
0.0684762548
0.0695973881
0.0707202358
0.071844793
0.0729710548
0.0740990165
0.0752286731
0.0763600196
0.0774930513
0.0786277632
0.0797641503
0.0809022077
0.0820419305
0.0831833135
0.084326352
0.0854710407
0.0866173748
0.0877653492
0.0889149588
0.0900661987
0.0912190636
0.0923735485
0.0935296484
0.0946873581
0.0958466724
0.0970075863
0.0981700946
0.0993341921
0.100499874
0.101667134
0.102835968
0.10400637
0.105178336
0.106351859
0.107526936
0.108703559
0.109881725
0.111061428
0.112242662
0.113425422
0.114609703
0.1157955
0.116982806
0.118171618
0.119361929
0.120553734
0.121747027
0.122941804
0.124138058
0.125335784
0.126534978
0.127735632
0.128937743
0.130141304
0.131346309
0.132552754
0.133760633
0.134969939
0.136180669
0.137392815
0.138606373
0.139821337
0.141037701
0.14225546
0.143474608
0.144695139
0.145917048
0.147140329
0.148364976
0.149590984
0.150818347
0.152047059
0.153277115
0.154508508
0.155741233
0.156975285
0.158210657
0.159447344
0.16068534
0.161924638
0.163165235
0.164407122
0.165650295
0.166894748
0.168140474
0.169387469
0.170635725
0.171885238
0.173136001
0.174388009
0.175641254
0.176895733
0.178151437
0.179408363
0.180666503
0.181925851
0.183186402
0.184448149
0.185711087
0.18697521
0.188240511
0.189506984
0.190774624
0.192043424
0.193313378
0.19458448
0.195856724
0.197130104
0.198404614
0.199680247
0.200956998
0.20223486
0.203513827
0.204793893
0.206075051
0.207357297
0.208640622
0.209925022
0.211210489
0.212497018
0.213784602
0.215073236
0.216362912
0.217653625
0.218945368
0.220238135
0.22153192
0.222826716
0.224122517
0.225419317
0.226717109
0.228015886
0.229315644
0.230616375
0.231918072
0.23322073
0.234524342
0.235828901
0.237134402
0.238440838
0.239748201
0.241056487
0.242365688
0.243675797
0.24498681
0.246298718
0.247611516
0.248925196
0.250239753
0.25155518
0.25287147
0.254188617
0.255506615
0.256825456
0.258145134
0.259465643
0.260786975
0.262109126
0.263432087
0.264755852
0.266080414
0.267405768
0.268731906
0.270058821
0.271386508
0.272714959
0.274044168
0.275374127
0.276704831
0.278036273
0.279368445
0.280701342
0.282034956
0.283369281
0.28470431
0.286040037
0.287376454
0.288713554
0.290051332
0.29138978
0.292728892
0.29406866
0.295409078
0.29675014
0.298091837
0.299434165
0.300777114
0.30212068
0.303464855
0.304809632
0.306155004
0.307500965
0.308847507
0.310194625
0.31154231
0.312890556
0.314239356
0.315588703
0.316938591
0.318289011
0.319639959
0.320991426
0.322343405
0.323695891
0.325048875
0.32640235
0.327756311
0.329110749
0.330465659
0.331821032
0.333176862
0.334533142
0.335889865
0.337247024
0.338604612
0.339962622
0.341321046
0.342679879
0.344039113
0.34539874
0.346758754
0.348119148
0.349479914
0.350841047
0.352202537
0.35356438
0.354926566
0.35628909
0.357651944
0.359015122
0.360378615
0.361742418
0.363106522
0.364470921
0.365835608
0.367200575
0.368565816
0.369931323
0.371297089
0.372663107
0.37402937
0.37539587
0.376762601
0.378129556
0.379496726
0.380864106
0.382231688
0.383599464
0.384967428
0.386335572
0.387703889
0.389072372
0.390441014
0.391809807
0.393178745
0.39454782
0.395917025
0.397286352
0.398655795
0.400025346
0.401394998
0.402764744
0.404134576
0.405504488
0.406874471
0.40824452
0.409614626
0.410984782
0.412354981
0.413725216
0.41509548
0.416465764
0.417836063
0.419206368
0.420576673
0.421946969
0.423317251
0.42468751
0.426057739
0.427427931
0.428798079
0.430168175
0.431538212
0.432908183
0.43427808
0.435647897
0.437017625
0.438387257
0.439756787
0.441126207
0.442495509
0.443864686
0.445233731
0.446602636
0.447971395
0.449339999
0.450708442
0.452076716
0.453444814
0.454812729
0.456180452
0.457547978
0.458915297
0.460282404
0.461649291
0.46301595
0.464382374
0.465748555
0.467114487
0.468480162
0.469845572
0.47121071
0.47257557
0.473940143
0.475304422
0.476668399
0.478032068
0.479395421
0.480758451
0.48212115
0.48348351
0.484845526
0.486207188
0.48756849
0.488929425
0.490289984
0.491650161
0.493009948
0.494369338
0.495728324
0.497086898
0.498445052
0.49980278
0.501160073
0.502516925
0.503873329
0.505229276
0.50658476
0.507939772
0.509294306
0.510648355
0.51200191
0.513354965
0.514707512
0.516059544
0.517411053
0.518762032
0.520112474
0.521462371
0.522811715
0.5241605
0.525508719
0.526856363
0.528203425
0.529549898
0.530895775
0.532241048
0.533585709
0.534929753
0.53627317
0.537615954
0.538958097
0.540299592
0.541640432
0.542980609
0.544320116
0.545658946
0.54699709
0.548334543
0.549671295
0.551007341
0.552342673
0.553677282
0.555011163
0.556344308
0.557676709
0.559008358
0.56033925
0.561669375
0.562998728
0.5643273
0.565655084
0.566982073
0.56830826
0.569633637
0.570958197
0.572281933
0.573604836
0.574926901
0.576248119
0.577568484
0.578887988
0.580206623
0.581524383
0.582841259
0.584157246
0.585472335
0.586786519
0.588099791
0.589412143
0.590723569
0.592034061
0.593343611
0.594652213
0.59595986
0.597266543
0.598572255
0.59987699
0.60118074
0.602483498
0.603785257
0.605086009
0.606385747
